,09:30,09:31,09:32,09:33,09:34,09:35,09:36,09:37,09:38,09:39,09:40,09:41,09:42,09:43,09:44,09:45,09:46,09:47,09:48,09:49,09:50,09:51,09:52,09:53,09:54,09:55,09:56,09:57,09:58,09:59,10:00,10:01,10:02,10:03,10:04,10:05,10:06,10:07,10:08,10:09,10:10,10:11,10:12,10:13,10:14,10:15,10:16,10:17,10:18,10:19,10:20,10:21,10:22,10:23,10:24,10:25,10:26,10:27,10:28,10:29,10:30,10:31,10:32,10:33,10:34,10:35,10:36,10:37,10:38,10:39,10:40,10:41,10:42,10:43,10:44,10:45,10:46,10:47,10:48,10:49,10:50,10:51,10:52,10:53,10:54,10:55,10:56,10:57,10:58,10:59,11:00,11:01,11:02,11:03,11:04,11:05,11:06,11:07,11:08,11:09,11:10,11:11,11:12,11:13,11:14,11:15,11:16,11:17,11:18,11:19,11:20,11:21,11:22,11:23,11:24,11:25,11:26,11:27,11:28,11:29,11:30,11:31,11:32,11:33,11:34,11:35,11:36,11:37,11:38,11:39,11:40,11:41,11:42,11:43,11:44,11:45,11:46,11:47,11:48,11:49,11:50,11:51,11:52,11:53,11:54,11:55,11:56,11:57,11:58,11:59,12:00,12:01,12:02,12:03,12:04,12:05,12:06,12:07,12:08,12:09,12:10,12:11,12:12,12:13,12:14,12:15,12:16,12:17,12:18,12:19,12:20,12:21,12:22,12:23,12:24,12:25,12:26,12:27,12:28,12:29,12:30,12:31,12:32,12:33,12:34,12:35,12:36,12:37,12:38,12:39,12:40,12:41,12:42,12:43,12:44,12:45,12:46,12:47,12:48,12:49,12:50,12:51,12:52,12:53,12:54,12:55,12:56,12:57,12:58,12:59,13:00,13:01,13:02,13:03,13:04,13:05,13:06,13:07,13:08,13:09,13:10,13:11,13:12,13:13,13:14,13:15,13:16,13:17,13:18,13:19,13:20,13:21,13:22,13:23,13:24,13:25,13:26,13:27,13:28,13:29,13:30,13:31,13:32,13:33,13:34,13:35,13:36,13:37,13:38,13:39,13:40,13:41,13:42,13:43,13:44,13:45,13:46,13:47,13:48,13:49,13:50,13:51,13:52,13:53,13:54,13:55,13:56,13:57,13:58,13:59,14:00,14:01,14:02,14:03,14:04,14:05,14:06,14:07,14:08,14:09,14:10,14:11,14:12,14:13,14:14,14:15,14:16,14:17,14:18,14:19,14:20,14:21,14:22,14:23,14:24,14:25,14:26,14:27,14:28,14:29,14:30,14:31,14:32,14:33,14:34,14:35,14:36,14:37,14:38,14:39,14:40,14:41,14:42,14:43,14:44,14:45,14:46,14:47,14:48,14:49,14:50,14:51,14:52,14:53,14:54,14:55,14:56,14:57,14:58,14:59,15:00,15:01,15:02,15:03,15:04,15:05,15:06,15:07,15:08,15:09,15:10,15:11,15:12,15:13,15:14,15:15,15:16,15:17,15:18,15:19,15:20,15:21,15:22,15:23,15:24,15:25,15:26,15:27,15:28,15:29,15:30,15:31,15:32,15:33,15:34,15:35,15:36,15:37,15:38,15:39,15:40,15:41,15:42,15:43,15:44,15:45,15:46,15:47,15:48,15:49,15:50,15:51,15:52,15:53,15:54,15:55,15:56,15:57,15:58,15:59
2019-04-01,0.0,-0.0006030234347383807,-0.001933833773471201,-0.005292050487617229,-0.0031502775987190665,-0.003191865421804518,-0.0006965960366805356,-0.0003638934519972197,-0.001362001206046872,0.0008213595059365944,0.0002079391154269616,0.00017674824811290997,0.00037429040776861954,-0.001362001206046872,-0.0017882763926721948,-0.0026824145890082924,-0.004429103158595183,-0.0037013162546007438,-0.003930049281570357,-0.004616248362479493,-0.0037221101661433957,-0.003534964962259086,-0.001070886444449155,0.0005198477885674778,0.0009773138425068525,-0.00116445904639131,-0.0018090703042149944,-0.0020585972427274073,-0.00267201763323704,-0.0034309954045455312,-0.0023912998274105753,-0.00012476346925620652,-0.00027032085005506486,0.00028071780582646463,0.0020482002869560076,0.002796781102493099,0.0018922459503857496,0.002287330269697021,0.0016219251003305368,0.00037429040776861954,-0.0004990538770248261,-0.0008837412405648453,-4.158782308545142e-05,0.0007797716828512907,-0.0001351604250276063,-0.0007589777713086389,-0.0005302447443388777,-0.0008837412405648453,-0.0011332681790772584,-0.001091680355991807,-0.0007069929924517877,-0.0006030234347383807,-0.00027032085005506486,-0.0005406417001102775,-0.0009045351521074972,-0.0012892225156473688,-0.0016531159676447362,-0.0022249485350689176,-0.002443284606267279,-0.0012996194714187685,-0.0003846873635400193,-0.0010500925329063556,-0.0007589777713086389,-0.0010500925329063556,-0.0008733442847934455,-0.0007693747270798908,0.00010396955771340693,0.0016115281445592848,0.002547254163980834,0.0027136054563223436,0.0014971616310743303,0.0005926264789669809,0.0005822295231955811,0.0005718325674241813,0.0006550082135950842,0.0006342143020522846,0.0007277869039944394,0.0015491464099311816,0.0014971616310743303,0.00303591108523426,0.0026720176332368922,0.0022769333139256213,0.001933833773471053,0.0018194672599862465,0.0018506581273002982,0.0018090703042148465,0.002942338483292105,0.003618140608429841,0.003108689775633615,0.0028903537044352536,0.0034517893160881832,0.004002827971969713,0.004689027052878848,0.00607182217046852,0.005416813956873436,0.004803393566363803,0.004377118379738332,0.003597346696887189,0.0026512237216942407,0.0028383689255785504,0.0033166288910607246,0.003846873635399602,0.004387515335509732,0.003982034060427061,0.0038780645027136538,0.003909255370027705,0.004075606662369216,0.0038572705911708543,0.004501881848994539,0.004252354910482125,0.0035661558295731377,0.0026408267659229884,0.002120978977355363,0.001372398161818124,0.0016323220561019368,0.0015595433657024337,0.0022769333139256213,0.002443284606267279,0.0016219251003305368,0.0022249485350689176,0.0017362916138154913,0.00187145203884295,0.0010292986213637037,0.00039508431931127135,0.0011124742675344588,0.001247634692562065,-5.1984778856703465e-05,-0.0002599238942838128,-0.0003430995404545679,-0.0008733442847934455,-0.0006446112578236844,-0.0005510386558815295,-0.0018402611715290461,-0.002765590235179195,-0.00249526938512413,-0.002089788110041459,-0.0020274063754133556,-0.0016843068349587879,-0.0013204133829614205,-0.001081283400220407,-0.0011540620906199102,-0.0011540620906199102,-0.0009253290636501491,0.00019754215965556182,0.0007693747270798908,-0.00022873302696976118,0.00017674824811290997,0.0008733442847934455,0.001767482481129543,0.00151795554261713,0.001434779896446227,0.0005198477885674778,0.0008317564617079941,0.0009565199309642007,0.0013827951175895237,0.0010500925329063556,0.0009253290636501491,0.0005510386558815295,0.00031190867314051626,-0.00014555738079885834,0.00014555738079885834,0.00039508431931127135,0.00028071780582646463,0.0006861990809091358,0.00039508431931127135,0.0008837412405646976,0.0008941381963360974,0.0013308103387328202,0.0008733442847934455,0.000675802125137736,0.0009045351521074972,0.0015387494541597817,0.0016427190118733365,0.0024016967831818276,0.0034205984487741315,0.002620032854380189,0.002620032854380189,0.002193757667754866,0.0023912998274105753,0.0027136054563223436,0.0028279719698071507,0.003098292819862363,0.003129483687176415,0.002879956748664002,0.0029735293506061564,0.0033166288910607246,0.00338940758146008,0.002900750660206654,0.0027655902351790473,0.003545361918030338,0.0034933771391736346,0.003358216714146028,0.0032542471564326212,0.003191865421804518,0.0034725832276309826,0.004117194485454667,0.004002827971969713,0.004335530556653028,0.004772202699049751,0.004387515335509732,0.003846873635399602,0.0038364766796282024,0.004169179264311371,0.004896966168305958,0.0050633174606474676,0.004002827971969713,0.003618140608429841,0.004377118379738332,0.005188080929903674,0.005811898276184707,0.005614356116528997,0.004969744858705313,0.005219271797217726,0.005312844399159881,0.005947058701212313,0.005520783514586842,0.005188080929903674,0.005229668752989126,0.005479195691501539,0.006279761285895482,0.006414921710923087,0.006123806949325223,0.006186188683953327,0.005895073922355462,0.006186188683953327,0.006186188683953327,0.005915867833898262,0.00549998960304419,0.005427210912644687,0.005416813956873436,0.005219271797217726,0.004990538770248113,0.004948950947162661,0.005531180470358242,0.00549998960304419,0.005219271797217726,0.005427210912644687,0.005791104364642055,0.005791104364642055,0.005915867833898262,0.006383730843609036,0.006758021251377508,0.006830799941777011,0.007069929924518024,0.007257075128402334,0.007444220332286644,0.007028342101432721,0.006154997816639275,0.00587428001081281,0.00624857041858143,0.006456509534008391,0.006893181676405114,0.0066228608263500495,0.006331746064752185,0.006321349108980933,0.0065292882244078945,0.006758021251377508,0.00720509034954563,0.006799609074462959,0.007132311659146127,0.007350647730344489,0.007652159447713753,0.008296770705537438,0.008151213324738431,0.008088831590110328,0.007714541182341856,0.007589777713085649,0.007527395978457547,0.007735335093884508,0.007423426420743992,0.007891289430454767,0.007714541182341856,0.007433823376515392,0.006789212118691559,0.0069763573225758695,0.007225884261088282,0.007319456863030437,0.0074858081553720954,0.007641762491942353,0.008473518953650347,0.00868145806907731,0.008941381963361122,0.009045351521074677,0.008702251980620109,0.009118130211474031,0.009367657149986445,0.009565199309642154,0.009461229751928599,0.009679565823126962,0.009762741469297715,0.009544405398099354,0.008629473290220605,0.008650267201763257,0.00834875548439414,0.008702251980620109,0.00776652596119856,0.0068619908090910625,0.0071531055706889266,0.00661246387057865,0.006726830384063456,0.006924372543719166,0.0069763573225758695,0.007381838597658541,0.007101120791832075,0.007340250774573237,0.008109625501653128,0.00816161028050983,0.008546297644049851,0.008483915909421748,0.008660664157534657,0.008515106776735799,0.007995258988168174,0.007423426420743992,0.007257075128402334,0.007184296438002978,0.007142708614917527,0.007080326880289424,0.006664448649435353,0.006737227339834856,0.0071531055706889266,0.007298662951487785,0.0074650142438294435,0.0066436547378927015,0.0065084943128652425,0.006539685180179294,0.006810006030234359,0.0071946933937742305,0.007901686386226018,0.0075066020669147466,0.007454617288058044,0.007371441641887288,0.00798486203239692,0.007745732049655908,0.0074858081553720954,0.007620968580399701,0.007121914703374876,0.007028342101432721,0.0068827847206337145,0.006810006030234359,0.006799609074462959,0.0068411968975484105,0.006269364330124081,0.0056663408953858485,0.005635150028071797,0.006082219126239772,0.0056975317626999,0.005967852612754965,0.006799609074462959,0.007184296438002978,0.006893181676405114,0.006872387764862462,0.007516999022686146,0.007662556403485005,0.007433823376515392,0.008016052899710973,0.007693747270799057,0.006456509534008391,0.006654051693664101,0.007121914703374876,0.0069763573225758695,0.006414921710923087,0.006175791728181927,0.006300555197438133,0.006227776507038778,0.006103013037782571,0.005811898276184707,0.0062901582416668815,0.0071531055706889266,0.007121914703374876,0.006934769499490566,0.006633257782121301,0.007236281216859682,0.00739223555342994,0.007995258988168174,0.00834875548439414,0.007901686386226018,0.007589777713085649,0.007340250774573237,0.007818510740055263,0.007870495518911967,0.007880892474683366,0.0075066020669147466,0.008379946351708193,0.008088831590110328,0.00816161028050983,0.008244785926680586,0.00873344284793416,0.008889397184504419,0.00886860327296162,0.008338358528622742
2019-04-02,0.0,0.0024320619969701246,0.0024011459546357562,0.0032874058348876037,0.002050764141513011,0.00028854972845400814,0.0011026721765924267,0.002689695683089911,0.0035862609107865963,0.0051423683749497115,0.003369848614446017,0.0016076342013870142,0.00015458021167184235,0.0006904582788007982,0.0012778630831537993,0.001257252388264269,-0.0002473283386749478,-0.0002679390335646244,-0.0002473283386749478,-0.0005977101517978393,-0.0012263363459299006,-0.0009171759225863623,-0.0015148860743840551,-0.0006801529313561064,-0.0004946566773498956,0.00018549625400621084,0.0013396951678225362,0.0028442758947617532,0.0030709935385470244,0.0030194668013231256,0.004153055020249921,0.005224811154507979,0.006080154992425458,0.005369086018735129,0.004565268918041549,0.006286261941321345,0.005770994569081773,0.004761070519492452,0.005760689221637081,0.004781681214382129,0.004307635231921763,0.003905726681574973,0.0026072529035316436,0.002864886589651283,0.004173665715139451,0.005327864628955923,0.004410688706369707,0.004802291909271659,0.0051423683749497115,0.00543091810340372,0.006203819161762932,0.006780918618671095,0.006719086534002358,0.006585117017220192,0.006028628255201559,0.004895040036274764,0.004256108494697865,0.003689314385234394,0.004019085503467755,0.00396755876624371,0.004050001545802123,0.004482826138483136,0.0043797726640353385,0.004256108494697865,0.00460649030782061,0.004709543782268553,0.004153055020249921,0.0034213753516699158,0.0026690849882003804,0.0012160309984850623,0.0002988550758988464,0.0009583973123652762,0.0010614507868132199,0.0012881684305986376,0.0018343518451724317,0.0006492368890215915,-0.00038129785545726,-0.0005977101517978393,3.0916042334368473e-05,-0.0003400764656780532,-0.0009583973123654226,-0.001112977524037265,-0.0014839700320496867,-0.0011232828714821032,-0.0014633593371601566,-0.0021538176159609547,-0.0030503828436576406,-0.0037202304275689084,-0.0035965662582314348,-0.004060306893246962,-0.0045549635705968575,-0.004658017045044801,-0.0060389336026465444,-0.006894277440564023,-0.0058843533909747016,-0.004462215443593752,-0.004627101002710432,-0.0053175592815112305,-0.004575574265486388,-0.005296948586621701,-0.00513206302750502,-0.004606490307820756,-0.004369467316590646,-0.005430918103403866,-0.007749621278481502,-0.008470995599616669,-0.008069087049269879,-0.005647330399744446,-0.005585498315075709,-0.005801910611416288,-0.005245421849397656,-0.005039314900501915,-0.004317940579366748,-0.003812978554572014,-0.0035656502158970664,-0.004132444325360537,-0.00392633737646465,-0.004379772664035485,-0.0048538186464957035,-0.004080917588136492,-0.003606871605676273,-0.003730535775013747,-0.0045446582231520195,-0.004956872120943648,-0.0032461844451086895,-0.0031740470129951143,-0.004379772664035485,-0.004740459824603068,-0.005719467831858021,-0.00515267372239455,-0.005008398858167546,-0.004080917588136492,-0.003854199944351221,-0.0034213753516700624,-0.003400764656780532,-0.0034419860465595923,-0.003874810639240751,-0.003586260910786743,-0.003812978554572014,-0.0044106887063698535,-0.0035965662582314348,-0.0027412224203139557,-0.0026484742933108505,-0.0020713748364026875,-0.001638550243721529,-0.0014015272524914196,-0.0018240464977277398,-0.0023393138699671656,-0.001834351845172578,-0.0017931304553933714,-0.002287787132743267,-0.0019786267093995823,-0.0017106876758351043,-0.002091985531292218,-0.0015870235064976304,-0.0016694662860558976,-0.0013293898203778443,-0.0014427486422704798,-0.0012881684305986376,-0.0015458021167184235,-0.0022980924801881053,-0.0021332069210714248,-0.002267176437853737,-0.0025866422086421132,-0.0031946577078846446,-0.003411070004225224,-0.004050001545802123,-0.003967558766243856,-0.0037923678596824837,-0.00411183363047086,-0.004132444325360537,-0.004153055020250067,-0.0038851159866855893,-0.003627482300565803,-0.003957253418799018,-0.004122138977915699,-0.004338551274256278,-0.005266032544287333,-0.006296567288766184,-0.005791605263971596,-0.005698857136968491,-0.0060183229077568675,-0.005740078526747551,-0.006214124509207917,-0.0061729031194287095,-0.005667941094634123,-0.004977482815833178,-0.005235116501952964,-0.005327864628956069,-0.004771375866937436,-0.005266032544287333,-0.005059925595391445,-0.00494656677349881,-0.005049620247946753,-0.0048538186464957035,-0.005441223450848705,-0.005966796170532969,-0.00640992611065882,-0.00695610952523276,-0.0065748116697755,-0.00615229242453918,-0.006512979585106763,-0.00655420097488597,-0.006162597771984018,-0.005740078526747551,-0.005286643239176862,-0.005606109009965385,-0.00575038387419239,-0.005482444840627911,-0.005369086018735129,-0.005781299916526758,-0.005853437348640333,-0.005544276925296648,-0.006100765687315281,-0.006286261941321345,-0.0065748116697755,-0.006069849644980913,-0.005492750188072604,-0.004194276410029274,-0.0036377876480106416,-0.004173665715139598,-0.004791986561826967,-0.004503436833372959,-0.004637406350155125,-0.00411183363047086,-0.0047095437822686995,-0.00473015447715823,-0.005090841637725814,-0.005039314900501915,-0.004493131485928121,-0.004400383358925015,-0.004441604748704222,-0.004225192452363642,-0.00447252079103859,-0.00491565073116444,-0.004967177468388339,-0.00515267372239455,-0.005389696713624806,-0.005544276925296648,-0.005647330399744446,-0.005781299916526758,-0.005904964085864232,-0.006255345898986977,-0.006430536805548496,-0.006224429856652608,-0.005637025052299754,-0.005224811154508125,-0.005183589764728919,-0.005183589764728919,-0.0054103074085143366,-0.005585498315075709,-0.005678246442078814,-0.00575038387419239,-0.006100765687315281,-0.0065748116697755,-0.006502674237661925,-0.006750002576336872,-0.007430155507692979,-0.00778053732081587,-0.008007254964601142,-0.008295804693055296,-0.008182445871162661,-0.0074919875923617155,-0.0074919875923617155,-0.007296185990910813,-0.006255345898986977,-0.006461452847882864,-0.00699733091501182,-0.0072137432113524,-0.007244659253686768,-0.006945804177787921,-0.006935498830343083,-0.006925193482898391,-0.00655420097488597,-0.005801910611416288,-0.005585498315075709,-0.005544276925296648,-0.005482444840627911,-0.0058843533909747016,-0.00591526943330907,-0.006162597771984018,-0.005904964085864232,-0.005637025052299754,-0.006296567288766184,-0.006327483331100552,-0.00695610952523276,-0.007069468347125396,-0.007110689736904602,-0.007172521821573339,-0.0074919875923617155,-0.007842369405484608,-0.008048476354380349,-0.008429774209837608,-0.008924430887187357,-0.008481300947061506,-0.008233972608386559,-0.008192751218607353,-0.008409163514947932,-0.007883590795263669,-0.00782175871059493,-0.007770231973371032,-0.007862980100374138,-0.0073374073806898735,-0.007574430371919983,-0.007862980100374138,-0.007574430371919983,-0.00759504106680966,-0.007646567804033558,-0.008027865659490818,-0.007729010583591826,-0.0074816822449168775,-0.0071828271690180315,-0.007285880643465975,-0.007244659253686768,-0.007275575296021137,-0.007265269948576444,-0.007079773694570234,-0.007409544812803448,-0.007986644269711612,-0.008285499345610459,-0.008409163514947932,-0.008120613786493924,-0.00862557581128851,-0.009285118047755087,-0.009913744241887148,-0.010253820707565201,-0.009985881674000724,-0.009748858682770613,-0.008780156022960353,-0.008677102548512556,-0.008553438379175082,-0.008007254964601142,-0.007955728227377242,-0.007698094541257457,-0.007759926625926194,-0.007017941609901497,-0.00761565176169919,-0.007739315931036664,-0.008130919133938616,-0.00862557581128851,-0.008470995599616669,-0.008130919133938616,-0.008347331430279195,-0.007945422879932405,-0.007440460855137817,-0.0076568731514783965,-0.008161835176272983,-0.007996949617156449,-0.00782175871059493,-0.007677483846367927,-0.008130919133938616,-0.008708018590846925,-0.009006873666745772,-0.008563743726619773,-0.008100003091604246,-0.008501911641951037,-0.009099621793748876,-0.008811072065294722,-0.009553057081319566,-0.009192369920751982,-0.008934736234632196,-0.008584354421509451,-0.008429774209837608,-0.0084400795572823,-0.008182445871162661,-0.007790842668260562,-0.007708399888702295,-0.007533208982140923,-0.006987025567567129,-0.00695610952523276,-0.0072137432113524,-0.006935498830343083,-0.006853056050784816,-0.007090079042014925,-0.007388934117913919,-0.008048476354380349,-0.007430155507692979,-0.007316796685800343,-0.007069468347125396,-0.007430155507692979,-0.007625957109144028,-0.007646567804033558,-0.007904201490153345,-0.008089697744159555,-0.007790842668260562,-0.008100003091604246,-0.008749239980625986,-0.0090790110988592,-0.008975957624411402,-0.00989313354699762
2019-04-03,0.0,-0.0032288443427957634,-0.004470707551563218,-0.0065818750064681394,-0.0070165271295368,-0.005515942418942566,-0.0036945430460834667,-0.002856285380165483,-0.0033323329435262987,-0.005484895838723376,-0.0062714092042762395,-0.006426642105372189,-0.005950594542011227,-0.005712570760330818,-0.005360709517846616,-0.005722919620403931,-0.00448105641163633,-0.0042223349098096975,-0.005453849258504186,-0.005381407237992841,-0.004677684753024435,-0.0058367570812075786,-0.00704757370975599,-0.0075236212731168055,-0.00692338738887923,-0.00695443396909842,-0.007233853191070983,-0.008103157437208304,-0.008030715416696959,-0.008693042461372915,-0.009934905670140515,-0.010680023595401076,-0.010473046393939712,-0.01151828126131906,-0.011963282244460834,-0.011890840223949341,-0.012439329807821649,-0.011859793643730151,-0.010493744114085936,-0.009914207949994291,-0.008413623239400205,-0.007947924536112354,-0.007989319976404657,-0.00827908805845048,-0.008517111840130888,-0.007771993914870326,-0.006302455784495429,-0.005671175320038516,-0.0051951277566777004,-0.005847105941280691,-0.0048846619544858005,-0.005816059361061501,-0.006395595525153,-0.005257220917116081,-0.005971292262157304,-0.005381407237992841,-0.00664396816690652,-0.007471876972751538,-0.008051413136843035,-0.008185948317792908,-0.010731767895766344,-0.010628279295035662,-0.011383746080369335,-0.010928396237154596,-0.009717579608606185,-0.010131534011528621,-0.011187117738981083,-0.010659325875254852,-0.010493744114085936,-0.010141882871601733,-0.007761645054797214,-0.0070889691500481454,-0.006695712467271788,-0.006871643088513815,-0.007502923552970728,-0.006778503347856245,-0.006726759047490977,-0.006426642105372189,-0.0067888522079293575,-0.00710966687019437,-0.0065818750064681394,-0.006468037545664345,-0.005060592575727828,-0.00451210299185552,-0.00485361537426661,-0.003798031646814149,-0.005174430036531476,-0.005640128739819326,-0.005319314077554461,-0.006012687702449606,-0.006457688685591379,-0.0056090821596001365,-0.005319314077554461,-0.004201637189663619,-0.004274079210175112,-0.0035910544453529314,-0.004522451851928632,-0.005671175320038516,-0.0056090821596001365,-0.0061265251632532545,-0.006147222883399479,-0.006385246665079887,-0.007751296194724248,-0.008651647021080611,-0.008392925519254127,-0.009044903703857117,-0.010038394270871052,-0.009934905670140515,-0.009376067226195096,-0.009810719349263756,-0.010721419035693232,-0.011435490380734603,-0.011352699500150144,-0.01123886203934635,-0.01176665390307258,-0.011942584524314756,-0.012397934367529494,-0.013670844156516138,-0.012460027527967875,-0.012604911568990712,-0.01250142296826003,-0.012242701466433543,-0.012594562708917598,-0.012397934367529494,-0.013008517111840182,-0.012615260429063824,-0.013608750996077905,-0.013950263378488849,-0.01408479855943872,-0.013950263378488849,-0.01349491353527411,-0.01408479855943872,-0.014591892703018873,-0.01516108000703726,-0.015088637986525768,-0.01466433472353022,-0.015274917467840907,-0.015792360471494172,-0.01485061420484536,-0.014809218764553204,-0.013919216798269659,-0.013536308975566413,-0.013163750012936131,-0.01361909985615087,-0.01327758747373978,-0.012698051309648281,-0.012646307009283014,-0.01173560732285339,-0.012190957166068276,-0.013298285193886004,-0.012698051309648281,-0.012428980947748684,-0.012346190067164078,-0.011994328824680022,-0.011973631104533946,-0.01130095519978473,-0.011942584524314756,-0.011559676701611362,-0.010928396237154596,-0.010845605356569992,-0.010659325875254852,-0.01148723468109987,-0.01253246954847922,-0.013608750996077905,-0.013546657835639525,-0.01293607509132869,-0.01278084219023274,-0.0120150265448261,-0.012553167268625444,-0.012253050326506656,-0.012573864988771522,-0.012977470531620992,-0.012832586490598154,-0.012832586490598154,-0.012118515145556783,-0.012635958149209902,-0.012822237630525042,-0.01266700472942909,-0.01315340115286302,-0.013939914518415883,-0.013608750996077905,-0.013205145453228434,-0.0132154943133014,-0.013598402136004793,-0.015295615187987131,-0.015699220730836603,-0.015274917467840907,-0.01559573213010592,-0.01550259238944835,-0.015212824307402527,-0.014902358505210773,-0.014902358505210773,-0.015337010628279288,-0.015978639952809313,-0.016858293059019598,-0.01822434258866396,-0.01816224942822558,-0.017675853004791506,-0.01791387678647206,-0.01828643574910234,-0.01855550611100194,-0.01799666766705652,-0.018545157250928826,-0.018596901551294242,-0.019093646834801133,-0.019611089838454398,-0.019228182015751008,-0.019445508077285338,-0.019683531858965743,-0.020335510043568737,-0.020790859886783475,-0.020066439681669136,-0.019745625019404123,-0.019342019476554655,-0.019445508077285338,-0.019787020459696426,-0.01951795009779683,-0.020097486261888328,-0.020490742944664686,-0.019466205797431413,-0.019062600254581945,-0.019621438698527366,-0.02001469538130387,-0.020604580405468333,-0.020780511026710507,-0.021039232528536993,-0.021204814289706057,-0.02186714133438201,-0.02164981527284768,-0.021660164132920795,-0.021660164132920795,-0.02137039605087512,-0.021049581388610107,-0.020915046207660232,-0.020904697347587268,-0.021463535791532543,-0.02152562895197092,-0.02124620972999836,-0.02115306998934079,-0.021422140351240387,-0.021463535791532543,-0.02186714133438201,-0.021877490194455125,-0.021567024392263223,-0.021360047190802006,-0.021856792474309047,-0.021939583354893506,-0.02208446739591634,-0.02186714133438201,-0.022105165116062565,-0.022560514959277304,-0.023171097703587995,-0.023585052106510577,-0.023554005526291385,-0.023367726044976247,-0.023326330604683945,-0.023543656666218275,-0.023729936147533413,-0.023429819205414627,-0.023895517908702476,-0.024288774591478834,-0.024288774591478834,-0.02470272899440127,-0.024661333554109113,-0.02470272899440127,-0.024951101636154792,-0.02533400945885818,-0.02693808277018295,-0.02621366256506847,-0.02602738308375333,-0.025447846919661832,-0.0261205228244109,-0.026689710128429432,-0.027693549555516478,-0.02726924629252093,-0.027403781473470803,-0.027372734893251614,-0.027962619917416075,-0.02840762090055785,-0.02801436421778149,-0.027838433596539463,-0.028179945978950408,-0.02851110950128853,-0.029069947945233952,-0.029225180846329756,-0.028925063904210967,-0.02865599354231137,-0.028914715044138003,-0.02904925022508773,-0.029235529706402866,-0.029173436545964486,-0.028304132299827166,-0.02781773587639324,-0.02726924629252093,-0.02720715313208255,-0.02664831468813713,-0.02662761696799105,-0.02605842966397252,-0.02541680033944264,-0.0249200550559356,-0.025220171998054534,-0.02519947427790831,-0.024971799356301016,-0.025147729977543044,-0.025147729977543044,-0.025189125417835346,-0.02504424137681236,-0.024506100653013164,-0.02433017003177099,-0.024537147233232356,-0.024878659615643443,-0.024381914332136406,-0.02468203127425519,-0.025271916298419805,-0.025603079820757782,-0.025147729977543044,-0.025209823137981424,-0.02526156743834669,-0.025147729977543044,-0.025230520858127502,-0.02501319479659317,-0.02424737915118653,-0.023833424748264095,-0.023274586304318674,-0.02312970226329569,-0.023491912365853004,-0.023678191847168146,-0.023522958946072196,-0.023740285007606526,-0.023719587287460302,-0.02414389055045585,-0.023781680447898683,-0.023522958946072196,-0.023636796406875844,-0.023698889567314224,-0.023440168065487592,-0.023543656666218275,-0.023771331587825715,-0.02405075080979828,-0.024537147233232356,-0.02483726417535114,-0.024961450496227902,-0.025530637800246288,-0.025530637800246288,-0.025251218578273726,-0.025613428680830892,-0.02550994008010021,-0.025271916298419805,-0.024754473294766686,-0.024412960912355595,-0.025551335520392512,-0.026017034223680364,-0.02504424137681236,-0.025458195779734943,-0.02562377754090386,-0.02498214821637398,-0.02461993811381681,-0.024102495110163696,-0.023512610085999083,-0.023088306823003536,-0.023388423765122325,-0.023667842987095032,-0.02337807490504921,-0.02368854070724111,-0.023222842003953262,-0.024133541690382884,-0.023895517908702476,-0.023450516925560702,-0.02412319283030977,-0.024019704229579088,-0.023864471328483287,-0.023823075888190985,-0.02362644754680273,-0.02347121464570678,-0.023222842003953262,-0.023336679464757055,-0.023605749826656655,-0.02396795992921382,-0.024102495110163696,-0.024009355369506123,-0.02375063386767949,-0.02426807687133261,-0.024868310755570333,-0.02636889546616442,-0.02711401339142498,-0.02689668732989065,-0.027258897432447818,-0.02772459613573567,-0.02843866748077704,-0.028542156081507723
2019-04-04,0.0,-0.0017860749938870132,-0.0025515357055528763,-0.0006485153251614064,0.0008186177055314974,0.0016903924049286292,0.0025409043067795376,0.0014352388343733416,0.002679112490830369,0.003083105644209524,0.0029130032638392815,0.0029342660613856566,0.001541552822104762,0.0012013480613644288,0.0004890443435642005,-0.00047841294479116425,-0.001477764429466091,-0.0029661602577052185,-0.0031362626380753095,-0.004188771116615871,-0.004443924687171159,-0.0025727985030990995,-0.0020518599632154883,-0.0008611433006240957,-0.0007335665153464519,-0.0026365868957379216,-0.0035721499877740264,-0.004486450282263757,-0.004188771116615871,-0.0045821328712219896,-0.004837286441777278,-0.004497081681036793,-0.004869180638096688,-0.004635289865087624,-0.005039283018466779,-0.00549643316571172,-0.005411381975526523,-0.005283805190249031,-0.0057090611411744095,-0.006123685693326751,-0.006059897300687929,-0.006315050871243217,-0.005879163521544651,-0.0054432761718459345,-0.006368207865108852,-0.006814726613580605,-0.006559573043025318,-0.006198105484738761,-0.00549643316571172,-0.0057090611411744095,-0.0055814843558967655,-0.0051137028098787885,-0.004252559509254693,-0.004603395668768213,-0.004805392245457866,-0.005592115754669952,-0.005570852957123578,-0.005857900723998276,-0.005974846110502884,-0.006070528699461117,-0.008281859644273509,-0.00813302006144949,-0.008462593423416787,-0.008760272589064673,-0.009206791337536427,-0.009780886871285673,-0.010982234932650102,-0.010471927791539676,-0.01095034073633069,-0.011088548920381521,-0.011258651300751763,-0.011588224662718909,-0.011854009632047384,-0.011216125705659165,-0.01003604044184096,-0.008845323779249719,-0.008281859644273509,-0.009057951754712409,-0.008420067828324189,-0.008037337472491258,-0.008079863067583857,-0.00823933404918091,-0.008568907411148208,-0.009185528539990051,-0.00933436812281392,-0.009440682110545339,-0.010556978981724722,-0.010418770797673891,-0.010269931214850024,-0.010514453386632124,-0.010758975558414225,-0.011088548920381521,-0.010152985828345567,-0.010269931214850024,-0.009589521693369206,-0.009440682110545339,-0.008781535386610896,-0.008143651460222678,-0.008547644613601833,-0.008324385239365956,-0.009047320355939371,-0.007824709497028568,-0.007261245362052358,-0.007154931374320939,-0.007048617386589669,-0.0074951361350614224,-0.008249965447954097,-0.00890911217188854,-0.008994163362073586,-0.009323736724040884,-0.010801501153506823,-0.011194862908112942,-0.011003497730196475,-0.01056761038049791,-0.010397508000127668,-0.008515750417282421,-0.008111757263903266,-0.007909760687213765,-0.007314402355917993,-0.007463241938742012,-0.007792815300709157,-0.008483856220963011,-0.009026057558392997,-0.008175545656542089,-0.008047968871264445,-0.007877866490894354,-0.006719044024622372,-0.005188122601290797,-0.004677815460180222,-0.00426319090802788,-0.004805392245457866,-0.004954231828281734,-0.00405056293256504,-0.004188771116615871,-0.004422661889624935,-0.004380136294532337,-0.0034339418037231955,-0.0035083615951352048,-0.003295733619672364,-0.0036465697791858848,-0.003986774539926218,-0.004008037337472592,-0.0037847779632367157,-0.0036359383804128484,-0.0037847779632367157,-0.0037741465644635284,-0.003625306981639661,-0.004146245521523272,-0.00359341278532025,-0.003253208024579917,-0.0030086858527976655,-0.0032000510307141315,-0.0036359383804128484,-0.003720989570597894,-0.003657201177959072,-0.0036784639755052958,-0.003795409362009903,-0.0038060407607829394,-0.003986774539926218,-0.003986774539926218,-0.00507117721478619,-0.005464538969392309,-0.005655904147308774,-0.006038634503141706,-0.006665887030756738,-0.007729026908070335,-0.00823933404918091,-0.008824060981703494,-0.008941006368207952,-0.007984180478625622,-0.006548941644252281,-0.006187474085965573,-0.00493296903073551,-0.004709709656499634,-0.0055814843558967655,-0.005666535546081811,-0.00630441947247003,-0.005857900723998276,-0.005655904147308774,-0.005464538969392309,-0.005964214711729697,-0.0053794877792071125,-0.005666535546081811,-0.006368207865108852,-0.0065702044417985045,-0.005624009950989364,-0.005592115754669952,-0.005942951914183473,-0.006102422895780528,-0.006283156674923806,-0.006240631079831208,-0.0065064160491596825,-0.006325682270016404,-0.0056452727485355875,-0.004964863227054921,-0.005538958760804167,-0.006049265901914742,-0.006028003104368519,-0.005879163521544651,-0.005230648196383245,-0.004964863227054921,-0.004752235251592081,-0.004539607276129391,-0.004305716503120327,-0.004295085104347291,-0.003827303558329314,-0.003986774539926218,-0.004093088527657638,-0.004348242098212925,-0.004816023644230902,-0.004964863227054921,-0.00493296903073551,-0.005570852957123578,-0.006176842687192386,-0.006942303398858249,-0.006346945067562628,-0.006006740306822295,-0.006038634503141706,-0.005889794920317688,-0.005996108908049108,-0.00648515325161346,-0.006198105484738761,-0.005794112331359454,-0.005836637926452053,-0.006431996257747674,-0.006325682270016404,-0.006198105484738761,-0.006134317092099939,-0.0053156993865682905,-0.004943600429508546,-0.005188122601290797,-0.005411381975526523,-0.005592115754669952,-0.005145597006198199,-0.005156228404971387,-0.005613378552216176,-0.005538958760804167,-0.0053794877792071125,-0.005145597006198199,-0.005326330785341477,-0.005028651619693743,-0.0050499144172399665,-0.004188771116615871,-0.0044545560859443455,-0.004741603852819044,-0.004560870073675615,-0.0038060407607829394,-0.004093088527657638,-0.004220665312935282,-0.004039931533792004,-0.004475818883490569,-0.0046140270675414,-0.004699078257726446,-0.005390119177980299,-0.005007388822147368,-0.004805392245457866,-0.004709709656499634,-0.004337610699439738,-0.005358224981660889,-0.006059897300687929,-0.00616621128841935,-0.005007388822147368,-0.005007388822147368,-0.003986774539926218,-0.0033382592147649624,-0.00426319090802788,-0.0046565526626338475,-0.004093088527657638,-0.00426319090802788,-0.004550238674902579,-0.004890443435642912,-0.00482665504300409,-0.004741603852819044,-0.004794760846684679,-0.004996757423374332,-0.004996757423374332,-0.004624658466314437,-0.0045821328712219896,-0.004369504895759149,-0.003529624392681428,-0.003657201177959072,-0.004305716503120327,-0.004284453705574104,-0.004316347901893515,-0.00405056293256504,-0.004210033914162094,-0.003986774539926218,-0.004210033914162094,-0.004284453705574104,-0.004146245521523272,-0.004369504895759149,-0.004295085104347291,-0.00408245712888445,-0.004433293288397971,-0.004901074834416099,-0.005772849533813231,-0.005283805190249031,-0.005124334208651975,-0.006102422895780528,-0.006251262478604395,-0.006400102061428263,-0.006325682270016404,-0.004837286441777278,-0.004178139717842684,-0.004571501472448803,-0.004273822306800916,-0.003625306981639661,-0.0038060407607829394,-0.0037103581718247068,-0.004326979300666702,-0.004188771116615871,-0.004507713079809981,-0.00493296903073551,-0.005464538969392309,-0.005889794920317688,-0.006038634503141706,-0.006187474085965573,-0.006346945067562628,-0.007006091791497071,-0.007048617386589669,-0.007931023484759988,-0.008122388662676455,-0.007803446699482345,-0.006984828993950847,-0.006750938220941783,-0.006889146404992615,-0.006782832417261194,-0.006963566196404473,-0.007729026908070335,-0.007835340895801755,-0.006676518429529774,-0.006814726613580605,-0.006984828993950847,-0.00732503375469118,-0.007452610539968824,-0.0071017743804553035,-0.006580835840571692,-0.006963566196404473,-0.0076333443191121024,-0.007314402355917993,-0.006846620809900016,-0.005762218135040044,-0.005613378552216176,-0.006017371705595331,-0.006782832417261194,-0.006687149828302962,-0.005772849533813231,-0.005719692539947596,-0.005815375128905829,-0.006400102061428263,-0.005996108908049108,-0.00595358331295651,-0.0066977812270761486,-0.00651704744793287,-0.006006740306822295,-0.006059897300687929,-0.006421364858974638,-0.006804095214807418,-0.00665525563198355,-0.006942303398858249,-0.0065702044417985045,-0.006814726613580605,-0.0067722010184880065,-0.006272525276150619,-0.006038634503141706,-0.006017371705595331,-0.005964214711729697,-0.005592115754669952,-0.005262542392702656,-0.005698429742401222,-0.005687798343628186,-0.005570852957123578,-0.006028003104368519,-0.006144948490872975,-0.006113054294553564,-0.005698429742401222,-0.0050499144172399665,-0.004528975877356204,-0.0045821328712219896,-0.005230648196383245,-0.0049223376319623225,-0.004730972454045857,-0.0049861260246011445,-0.0046140270675414,-0.005220016797610209,-0.004943600429508546,-0.004943600429508546,-0.004730972454045857,-0.005092440012332565,-0.004964863227054921
2019-04-05,0.0,0.00015882932201057346,0.0034201247339608145,0.002541269152169025,0.0028483391747227502,0.001260045954617166,0.0023612625872237586,0.0023506739657563366,0.0023294967228216436,0.002213021886680607,0.0014824070054319687,0.0017259452991814645,0.001588293220105584,0.0016412363274425422,0.0024353829374954097,0.0036213085418409243,0.004966063468197013,0.007041433275801739,0.00833324509482102,0.009169746190743424,0.010112133501339443,0.010323905930686824,0.009582702427970914,0.009106214461939193,0.008894442032591814,0.00793087747906095,0.008597960631505358,0.009402695863025497,0.010726273546446893,0.011160407026609228,0.01192278777225983,0.011827490179053636,0.013204010969811839,0.01314047924100761,0.013564024099702372,0.01538526699209033,0.016401774652957852,0.017450048178227637,0.018805391726051144,0.01925011382768075,0.01884774621192068,0.018805391726051144,0.019356000042354517,0.01931364555648498,0.01953600660729978,0.020245444245613576,0.020150146652407233,0.019896019737190317,0.020700754968710607,0.021441958471426513,0.021981978166262465,0.022352579917620567,0.02251140923963099,0.022765536154847908,0.022447877510826914,0.022850245126586982,0.022987897205662713,0.02208786438093623,0.02088076153365587,0.021314895013818055,0.020838407047786486,0.021590199171969818,0.02311496066327117,0.022797302019250024,0.022807890640717445,0.022246693702946803,0.023009074448597556,0.023623214493705007,0.023707923465444078,0.023189081013542823,0.022617295454304756,0.02236316853908784,0.02330555584968386,0.022934954098325903,0.023760866572780887,0.024247943160279877,0.024862083205387478,0.025592698086636115,0.025836236380385614,0.025550343600766582,0.0258044705159835,0.026397433318156256,0.027191579928209125,0.02776336548744719,0.027551593058099805,0.0280386696455988,0.028409271396956752,0.027488061329295578,0.026662148854840594,0.02818691034614195,0.027233934414078658,0.02791160618799034,0.028081024131468336,0.028006903781196683,0.02676803506951421,0.026196249510276295,0.027138636820872315,0.02776336548744719,0.028642221069238978,0.02893870247032543,0.028546923476032632,0.029182240764074927,0.030061096345866716,0.03164938956597245,0.03174468715917864,0.03136349678635342,0.03163880094450503,0.0320411685602651,0.031702332673309255,0.03150114886542915,0.03354475280863176,0.03371417075210976,0.03337533486515391,0.033036498978198076,0.03240118169015578,0.03190351648118922,0.029859912537986606,0.02832456242521783,0.02776336548744719,0.028091612752935605,0.0277951313518493,0.02702216198473113,0.026450376425493062,0.026069186052667837,0.024777374233648557,0.02513738736353909,0.026598617126036367,0.02675744644804694,0.0264186105610911,0.02617507226734145,0.02636566745375414,0.02763630202983873,0.02825044207494618,0.027742188244512495,0.028208087589076794,0.029108120413803274,0.028430448639891595,0.029076354549401162,0.028165733103207257,0.028197498967609372,0.027805719973316573,0.027541004436632384,0.028112789995870448,0.02853633485456521,0.02955284251543288,0.029446956300759115,0.028610455204836863,0.02846221450429371,0.028197498967609372,0.028028081024131377,0.028377505532554637,0.028906936605923316,0.028642221069238978,0.02763630202983873,0.02805984688853349,0.027922194809457762,0.027689245137175536,0.027752776865979767,0.028239853453478906,0.028335151046685252,0.028546923476032632,0.028748107283912742,0.028832816255651664,0.028959879713260125,0.02858927796190217,0.028959879713260125,0.02933048146461808,0.029055177306466468,0.029214006628477042,0.029129297656737968,0.029838735295051915,0.029923444266790836,0.02960578562276969,0.029118709035270696,0.029626962865704532,0.030325811882551054,0.030442286718692094,0.03070700225537628,0.030791711227115354,0.03109878124966908,0.03143761713662492,0.031628212323037606,0.030918774684723812,0.03048464120456148,0.031225844707277538,0.031194078842875422,0.0304952298260289,0.029955210131192952,0.02913988627820539,0.028991645577662237,0.02886458212005378,0.028991645577662237,0.029415190436357,0.02942577905782442,0.030114039453203525,0.03057993879776782,0.031787041645048184,0.03215764339640614,0.031988225452928294,0.03173409853771137,0.032295295475482017,0.03260236549803574,0.033163562435806385,0.03359769591596872,0.03391535455998987,0.03375652523797929,0.034518905983629895,0.03514363465020492,0.03522834362194384,0.03542952742982395,0.03558835675183452,0.03605425609639882,0.03613896506813774,0.03649897819802843,0.03664721889857158,0.036573098548299925,0.03676369373471262,0.03672133924884323,0.03791785347465616,0.038044916932264625,0.037970796581992976,0.03808727141813401,0.0380343283107972,0.037843733124384514,0.03807668279666674,0.03791785347465616,0.03761078345210229,0.03848963903389408,0.03871200008470888,0.038817886299382647,0.038510816276828924,0.03930496288688179,0.03998263466079347,0.04030029330481462,0.04003557776813028,0.03959085566650082,0.03945320358742494,0.03953791255916386,0.039929691553456666,0.039802628095848204,0.039643798773837634,0.03965438739530505,0.038997892864327914,0.03833080971188366,0.03862729111296996,0.03902965872873003,0.0389661269999258,0.03945320358742494,0.04027911606187992,0.041263857858345326,0.041242680615410636,0.04080854713524845,0.040416768140955656,0.04034264779068415,0.039929691553456666,0.03929437426541437,0.03984498258171759,0.03948496945182706,0.039664976016772324,0.03984498258171759,0.0400461663895977,0.04020499571160827,0.040130875361336624,0.04022617295454296,0.040353236412151425,0.04018381846867358,0.040554420220031535,0.04097796507872645,0.04130621234421487,0.041719168581442354,0.04214271344013727,0.04199447273959397,0.041983884118126695,0.04149680753062755,0.042470960705625685,0.042979214536059525,0.04295803729312483,0.04232272000508253,0.0406603064347053,0.04044853400535777,0.04030029330481462,0.039866159824652435,0.04018381846867358,0.0411262057792696,0.04103090818606325,0.04151798477356225,0.04258743554176672,0.043074512129265864,0.042841562456983645,0.0418356434175834,0.04151798477356225,0.040512065734162,0.04063912919177046,0.04100973094312841,0.040692072299107415,0.040289704683347194,0.04009910949693451,0.04050147711269473,0.041422687180355904,0.041867409281985506,0.0418144661746487,0.04188858652492035,0.04150739615209498,0.04080854713524845,0.041263857858345326,0.04116856026513899,0.04084031299965057,0.04036382503361885,0.040512065734162,0.041020319564595835,0.04146504166622544,0.04163445960970343,0.04200506136106139,0.041920352389322464,0.04153916201649709,0.04080854713524845,0.04025793881894508,0.040130875361336624,0.040024989146663005,0.039728507745576555,0.03967556463823974,0.03950614669476175,0.03985557120318501,0.03949555807329448,0.039336728751283905,0.03937908323715329,0.039559089802098706,0.040416768140955656,0.041083851293400066,0.0412003261295411,0.041687402717040245,0.04179328893171401,0.04221683379040877,0.04265096727057095,0.043074512129265864,0.04403807668279658,0.04288391694285318,0.04188858652492035,0.041920352389322464,0.04160269374530132,0.04180387755318128,0.04175093444584447,0.04196270687519185,0.04216389068307196,0.0425027265700278,0.04195211825372458,0.04234389724801723,0.04199447273959397,0.04235448586948465,0.04200506136106139,0.04222742241187619,0.04304274626486375,0.04286273969991849,0.04234389724801723,0.04207918171133304,0.04202623860399608,0.04197329549665928,0.04223801103334361,0.042513315191495225,0.04232272000508253,0.042280365519213,0.04283097383551637,0.043053334886331174,0.04362512044556924,0.04385807011785131,0.043116866615135405,0.04218506792600665,0.042439194841223576,0.04223801103334361,0.04255566967736461,0.043053334886331174,0.043275695937145975,0.043138043858070095,0.042333308626549805,0.042439194841223576,0.042248599654810884,0.04288391694285318,0.043074512129265864,0.043000391778994215,0.04255566967736461,0.04255566967736461,0.04211094757573516,0.042439194841223576,0.04236507449095192,0.04304274626486375,0.04361453182410182,0.04418631738333988,0.04439808981268726,0.044567507756165255,0.044874577778718984
2019-04-08,0.0,0.003934505614236862,0.005962289276958869,0.00762688780605914,0.008534850640113691,0.00617414727157163,0.007304056576172932,0.006517155453325674,0.004832379972357568,0.004045478849510166,0.0077983918969360905,0.009775733179988439,0.012126348072596655,0.013649707938621655,0.010784580773382447,0.012731656628633117,0.0159095265478244,0.016777135478143284,0.01808863734955552,0.01674687005034146,0.017442974889783393,0.01682757785781294,0.017150409087699006,0.01682757785781294,0.015152890852778824,0.013891831361036241,0.011036792671731022,0.011036792671731022,0.009846352511526074,0.011329358473815264,0.010350776308223078,0.009624406040979323,0.009805998607790262,0.010693784489977121,0.0092006900517538,0.008827416442198076,0.010149006789544305,0.009382282618564738,0.008908124249669558,0.00863573539945315,0.009553786709441688,0.009352017190762915,0.008746708634726453,0.009382282618564738,0.009614317565045334,0.010088475933940659,0.010532368875034018,0.012065817216993008,0.013558911655216187,0.014386166681799399,0.013478203847744705,0.01234829454314326,0.012479444730284542,0.012701391200831294,0.012852718339840408,0.012923337671377901,0.012005286361389362,0.011995197885455373,0.01248953320621853,0.011813605318644433,0.010915730960523728,0.010370953260090913,0.00999767965053519,0.010461749543496383,0.010239803072949775,0.009896794891195732,0.011077146575466833,0.011188119810740136,0.01161183579996566,0.012035551789191185,0.01248953320621853,0.012126348072596655,0.012257498259737792,0.011682455131503296,0.010925819436457717,0.009937148794931544,0.009755556228120604,0.01016918374141214,0.010865288580854072,0.009795910131856274,0.010976261816127375,0.011359623901617088,0.011430243233154723,0.011662278179635319,0.011299093046013441,0.011561393420296003,0.010935907912391563,0.010713961441844956,0.010159095265478152,0.010290245452619431,0.010865288580854072,0.01039113021195889,0.009321751762961092,0.00863573539945315,0.008726531682858618,0.008484408260444033,0.008524762164179845,0.00863573539945315,0.008867770345933746,0.008030426843416687,0.008353258073302752,0.007990072939681018,0.006981225346286866,0.0065272439292595194,0.0049332647316968825,0.0050038840632345176,0.005074503394772153,0.002774330881833595,0.0017453063365717523,0.0012005286361389362,-5.044237966980078e-05,0.0002723888502164081,0.0015334483419589906,0.0014123866307516981,0.0007768126469134124,0.0008474319784509041,0.0007566356950454347,0.0010492014971298204,0.0018361026199772217,0.0016444215772322942,0.0028247732615033962,0.0033291970582004,0.003470435721275527,0.004317867699726575,0.004590256549942983,0.004065655801378001,0.002976100400512512,0.003167781443257296,0.0038437093308313934,0.0033897279138040467,0.002683534598428126,0.002411145748211718,0.0026936230743621146,0.003198046871059119,0.002723888502163938,0.0030769851598518266,0.002774330881833595,0.003450258769407693,0.003510789625011339,0.004428840934999879,0.00381344390302957,0.0033291970582004,0.002794507833701573,0.0035612320046809966,0.0033897279138040467,0.002855038689305219,0.0032989316303985773,0.002653269170626303,0.0031274275395216274,0.002723888502163938,0.0024010572722778724,0.0022799955610705797,0.0016746870050341172,0.0015939791975626367,0.001583890721628648,0.0020883145183256523,0.0021992877535989557,0.0021992877535989557,0.000887785882186716,0.0007364587431776005,0.0007263702672436116,0.0005750431282346394,0.0003631851336218775,-6.0530855603646246e-05,-0.00014123866307527017,0.0005145122726309931,0.0014426520585535212,0.0019672528071183596,0.002370791844476049,0.0028045963096354183,0.002239641657334768,0.002098402994259641,0.0017251293847037746,0.0022093762295329446,0.0023909687963438835,0.002542295935352999,0.0029155695449088652,0.0031778699191912846,0.0032787546785305994,0.0028651271652390645,0.0024615881278815185,0.002300172512938414,0.000887785882186716,0.0010088475933940086,-5.044237966980078e-05,0.0007364587431776005,0.0010088475933940086,0.0012106171120727816,0.0017251293847037746,0.0020378721386559947,0.002340526416674226,0.003167781443257296,0.0032484892507287765,0.003268666202596754,0.0037327360955579465,0.0041463636088496245,0.0045398141702731815,0.003995036469840509,0.0038638862826992277,0.0029155695449088652,0.0036318513362186317,0.0036722052399543,0.0035914974324828194,0.004035390373576178,0.003914328662368885,0.00424724836818894,0.004802114544555745,0.0050946803466399865,0.004882822352027225,0.004549902646207171,0.003752913047425924,0.003702470667756123,0.0033796394378700577,0.0033897279138040467,0.003339285534134246,0.002966011924578523,0.0028853041171070424,0.0032182238229269532,0.003702470667756123,0.0031274275395216274,0.003450258769407693,0.003894151710501051,0.003652028288086466,0.003430081817539715,0.002996277352380346,0.002058049090523829,0.00204796061458984,0.002582649839088811,0.0028247732615033962,0.0026734461224942802,0.002169022325797133,0.0020782260423916634,0.0021387568979953095,0.0029054810689748767,0.002733976978097927,0.002612915266890634,0.002723888502163938,0.0029155695449088652,0.002925658020842711,0.0022194647054669336,0.001856279571845056,0.0021992877535989557,0.0029054810689748767,0.0023203494648062484,0.0025221189834851647,0.002118579946127475,0.001755394812505598,0.0026230037428244795,0.002986188876446357,0.002966011924578523,0.0036722052399543,0.003470435721275527,0.003167781443257296,0.0035410550528131622,0.0030568082079839923,0.003258577726662765,0.003712559143690112,0.0037730899992937583,0.0038033554270955816,0.0032989316303985773,0.003752913047425924,0.0033493740100682345,0.002955923448644534,0.003722647619624101,0.004186717512585293,0.0037831784752277472,0.003480524197209516,0.003652028288086466,0.0038537978067652388,0.003823532378963416,0.0038336208548974044,0.003409904865671881,0.002602826790956645,0.0031778699191912846,0.0033191085822664116,0.003450258769407693,0.0023506148926080717,0.002098402994259641,0.002542295935352999,0.0021387568979953095,0.002411145748211718,0.0019268989033825478,0.0020176951867880173,0.00236070336854206,0.0019470758552505255,0.0019672528071183596,0.0017150409087699292,0.0018663680477790448,0.0017957487162414097,0.00204796061458984,0.0019672528071183596,0.001755394812505598,0.0016847754809681062,0.0012610594917425823,0.0016242446253644598,0.001654510053166283,0.0016746870050341172,0.002068137566457818,0.0019067219515147135,0.0016746870050341172,0.0015233598660250017,0.0014527405344873666,0.0015334483419589906,0.0022799955610705797,0.0027642424058997497,0.0025725613631548223,0.0026431806946924574,0.0026431806946924574,0.0026633576465602917,0.002744065454031772,0.002058049090523829,0.0012307940639407593,0.001543536817892836,0.001896633475580868,0.0014224751066855435,0.001513271390091013,0.0016040676734964821,0.0015334483419589906,0.0016343331012983054,0.0016948639569019516,0.0017251293847037746,0.0024615881278815185,0.0024212342241457067,0.003097162111719804,0.003228312298860942,0.003087073635785815,0.0031375160154554728,0.0030063658283143346,0.00301645430424818,0.002794507833701573,0.0025927383150226566,0.0017957487162414097,0.001755394812505598,0.002441411176013541,0.002118579946127475,0.001785660240307421,0.0017049524328359405,0.0016040676734964821,0.0012812364436104167,0.001815925668109244,0.0022194647054669336,0.002370791844476049,0.002471676603815364,0.0022194647054669336,0.002118579946127475,0.0016343331012983054,0.0021387568979953095,0.0021387568979953095,0.002411145748211718,0.002754153929965761,0.003430081817539715,0.0033796394378700577,0.0033493740100682345,0.003258577726662765,0.0028146847855694073,0.0024010572722778724,0.002774330881833595,0.0028953925930408878,0.0026633576465602917,0.00253220745941901,0.0022799955610705797,0.002774330881833595,0.0028853041171070424,0.002966011924578523,0.0022799955610705797,0.002239641657334768,0.0028853041171070424,0.003641939812152477,0.0037630015233597693,0.003097162111719804,0.00284495021337123,0.0026936230743621146,0.002774330881833595,0.002733976978097927,0.002411145748211718,0.0021891992776651103,0.0026330922187584684,0.002370791844476049,0.002612915266890634,0.0026936230743621146,0.0025624728872208334,0.0028752156411730534,0.002542295935352999,0.0023909687963438835,0.0025221189834851647,0.002118579946127475,0.0018461910959110671,0.0014527405344873666,0.0016847754809681062,0.0016645985291001285
2019-04-09,0.0,-0.0007803869503085892,-0.0018546858689151885,-0.004135037347089777,-0.00687145912089914,-0.008533581976101904,-0.010651775126939586,-0.010317323576807312,-0.009861253281172395,-0.009658555372001368,-0.008178860635052571,-0.008908573108068297,-0.00924302465820057,-0.008675470512521608,-0.006851189329982081,-0.007520092430246483,-0.005736350829541219,-0.005645136770414235,-0.005756620620458278,-0.00583769978412666,-0.005118122206569394,-0.004236386301675219,-0.0035674832014108166,-0.004925559192856825,-0.004003283706128531,-0.004074227974338455,-0.004844480029188442,-0.004469488897222051,-0.0040235534970455905,-0.005290415429364759,-0.005351224802116081,-0.005645136770414235,-0.006405253929805621,-0.008776819467107193,-0.009536936626498724,-0.0094761272537474,-0.009567341312874384,-0.008969382480819618,-0.009526801731040122,-0.009536936626498724,-0.010165300144929007,-0.009070731435405203,-0.009182215285449246,-0.009648420476542767,-0.010449077217768415,-0.01008422098126048,-0.010418672531392753,-0.010266649099514448,-0.010438942322309958,-0.010489616799602678,-0.011138250108950164,-0.010560561067812602,-0.009993006922133497,-0.010175435040387464,-0.00895924758536116,-0.007327529416534058,-0.006689031002645173,-0.006678896107186571,-0.0060505325887562885,-0.006192421125175993,-0.007104561716445829,-0.008128186157759707,-0.008878168421692634,-0.008614661139770287,-0.008219400216886691,-0.007803869503086035,-0.006607951838976792,-0.006141746647883272,-0.006770110166313555,-0.008036972098632723,-0.0079761627258814,-0.009030191853570941,-0.009709229849294088,-0.010398402740475694,-0.010418672531392753,-0.010124760563094744,-0.010651775126939586,-0.010043681399426362,-0.010590965754188263,-0.011817288104673168,-0.01241524693672779,-0.011665264672794863,-0.011401757390872513,-0.012050390700219855,-0.011482836554540896,-0.011199059481701487,-0.010813933454276349,-0.011563915718209278,-0.011128115213491562,-0.009587611103791444,-0.009810578803879673,-0.010530156381436942,-0.010803798558817891,-0.009374778299161815,-0.008817359048941313,-0.009749769431128352,-0.008594391348853226,-0.00878695436256565,-0.009182215285449246,-0.010155165249470405,-0.010884877722486273,-0.010915282408861934,-0.011452431868165235,-0.011705804254629125,-0.011006496467988918,-0.01002341160850916,-0.00941531788099608,-0.009141675703615128,-0.009911927758465115,-0.010469347008685619,-0.010195704831304667,-0.009455857462830198,-0.009435587671913138,-0.009851118385713793,-0.010347728263182974,-0.01074298918606657,-0.01003354650396776,-0.009729499640211149,-0.0094659923582888,-0.009506531940123061,-0.008908573108068297,-0.006982942970943183,-0.0062228258115516535,-0.0062228258115516535,-0.006668761211728114,-0.006972808075484726,-0.005949183634170847,-0.0065268726753082654,-0.006506602884391206,-0.005513383129452988,-0.005655271665872693,-0.0057262159340826175,-0.004874884715564104,-0.004155307138006837,-0.00451002847905617,-0.00426679098805088,-0.003587752992327876,-0.0035978878877864777,-0.0036891019469133175,-0.002736421773809363,-0.002574263446472455,-0.001499964527865856,-0.0008513312185185133,-0.0008107916366842503,-7.094426820978009e-05,0.00018242811825396713,-0.0003141817592150696,-0.0001722932227953654,-5.0674477292720635e-05,-9.121405912698357e-05,0.0005878239365961644,0.0012871317232363716,0.0012060525595678458,0.0014796947369487964,0.0018242811825396714,0.001945899928042316,0.001722932227954086,0.001956034823500774,0.002472914491887014,0.003445864455908172,0.0034559993513667737,0.0034255946649911126,0.003516808724118096,0.004276925883509482,0.004874884715564248,0.00547284354761887,0.0055741925022043115,0.005199201370237919,0.005868104470502465,0.005493113338535929,0.0058174299932096,0.0058985091568781265,0.005736350829541219,0.005442438861243209,0.005979588320546509,0.006628221629893851,0.006678896107186715,0.0067194356890208345,0.006922133598192005,0.006638356525352453,0.006516737779849808,0.007003212761860387,0.006658626316269512,0.007074157030070311,0.007378203893826923,0.007469417952953907,0.006455928407098486,0.006932268493650463,0.006982942970943327,0.0072565851483242785,0.007611306489373611,0.0078545439803789,0.008057241889549926,0.008969382480819762,0.008624796035228888,0.008209265321428233,0.008270074694179555,0.007955892934964341,0.007479552848412364,0.007205910671031414,0.006405253929805765,0.005776890411375482,0.005087717520193876,0.004854614924647044,0.0044086795244707285,0.004327600360802346,0.004003283706128531,0.004479623792680652,0.003942474333377353,0.0032634363376542047,0.0032431665467371456,0.003101278010317297,0.0033141108149469254,0.0034255946649911126,0.0030100639511903135,0.0028681754147706095,0.002766826460185024,0.0029796592648146524,0.003486404037742435,0.0036181576787035373,0.003587752992327876,0.004074227974338455,0.0035066738286594944,0.0032837061285712643,0.0031620873830686194,0.003151952487610162,0.0027870962511022277,0.0032634363376542047,0.0032634363376542047,0.002574263446472599,0.0024425098055113528,0.002249946791798928,0.0023411608509259114,0.0018445509734567307,0.001996574405335037,0.0022702165827159873,0.001945899928042316,0.001682392646119823,0.0017330671234126876,0.0015911785869928395,0.0010236244413138786,0.0003040468637566119,0.0004155307138006549,-0.00016215832733676365,5.0674477292864665e-05,-9.121405912698357e-05,-0.0001418885364197042,0.00019256301371256887,0.0008006567412257926,0.001530369214241517,0.0020675186735449607,0.0030506035330245766,0.002807366042019287,0.002320891060008708,0.002351295746384369,0.0023107561645502503,0.002209407209964665,0.00262493792376532,0.002584398341931201,0.00233102595546731,0.0020067093007936384,0.00208778846446202,0.002097923359920622,0.0019763046144179773,0.0018040113916224679,0.0015506390051587206,0.0020675186735449607,0.0020371139871692995,0.0020776535690034187,0.002249946791798928,0.0020371139871692995,0.0017736067052468065,0.0016722577506613654,0.0011857827686507863,0.0012972666186948294,0.0012871317232363716,0.0013175364096120329,0.0009121405912698357,0.0005776890411375626,0.0003141817592152136,-0.00010134895458544127,-0.00033445155013227306,-0.0004662051910933755,-0.0009121405912698357,-0.000486474982010579,0.0003851260274249937,0.0007601171593915297,0.000597958832054622,0.00043580050471785835,0.0004155307138006549,0.00043580050471785835,0.00046620519109351956,0.00043580050471785835,0.00032431665467367134,7.094426820992411e-05,4.0539581834262925e-05,0.000263507281922349,0.0009324103821868951,0.0011857827686507863,0.0009830848594797597,0.0010641640231481416,0.001236457245943507,0.0006080937275132238,0.0004763400865519773,0.000263507281922349,0.00011148385004418703,5.0674477292864665e-05,-0.00013175364096110247,0.0003952609228835954,0.00042566560925925664,0.00015202343187830595,-0.0001418885364197042,-0.00037499113196639194,-0.0005371494593032996,-0.0006993077866402073,-0.0014898296324072542,-0.0018850905552908496,-0.0022296770008817246,-0.002391835328218488,-0.0020371139871691556,-0.00134794109598755,-0.0012871317232362276,-0.002016844196252096,-0.0020979233599204778,-0.0009932197549382175,-0.0015810436915342377,-0.0016621228552027637,-0.002016844196252096,-0.0030506035330245766,-0.0028985801011462706,-0.002483049387345472,-0.0015810436915342377,-0.0015810436915342377,-0.0017026624370368826,-0.0014290202596559318,-0.001317536409611889,-0.0018141462870810696,-0.0020776535690034187,-0.0018850905552908496,-0.0017330671234125437,-0.0015810436915342377,-0.0014290202596559318,-0.0016317181688271024,-0.0011756478731921845,-0.0012060525595678458,-0.0013074015141532871,-0.0014290202596559318,-0.0018546858689151885,-0.0023006212690916484,-0.0023411608509257675,-0.0035978878877864777,-0.003526943619576554,-0.0032837061285712643,-0.003395189978615307,-0.003303975919488324,-0.003638427469620597,-0.003993148810669929,-0.004185711824382498,-0.0029492545784389913,-0.0028276358329363464,-0.0027972311465606853,-0.0021891374190474615,-0.0021080582553790798,-0.0017837416007054083,-0.0016317181688271024,-0.0012668619323191683,-0.0012263223504849052,-0.0016013134824514413,-0.0016418530642855601,-0.0010945687095236588,-0.000709442682098665,-0.0006587682048059445,-0.0004662051910933755,-0.0007297124730158685,-0.0006891728911816056,-0.0008006567412256486,-0.00029391196829801013,9.121405912698357e-05,0.00015202343187830595,0.00012161874550264475,-3.0404686375661188e-05,-2.026979091705945e-05,-0.00013175364096110247,-0.00015202343187830595,-0.0003445864455907308,-0.0014290202596559318,-0.0013986155732802707,-0.0016215832733685006,-0.0018648207643737903,-0.0014695598414901946
2019-04-10,0.0,-0.000533521240185195,-0.002456210992550833,0.002415945238574541,0.003935977451177684,0.003946043889671793,0.006301590497281967,0.006241191866317599,0.003674250050332141,0.002375679484598248,0.0018824239983893458,0.004409100060398655,0.003674250050332141,0.0035433863499092976,0.0028890678477953686,0.0021642842762231067,0.00419770485202337,0.004701026776726382,0.0038957116972015344,0.0042581034829877375,0.003966176766659868,0.0027078719549022672,0.0017616267364606115,0.0026172740084557168,0.002264948661163623,0.001731427420978428,0.0011073082343466825,0.00038252466277427727,0.0017716931749547204,0.0018320918059190874,9.059794644655065e-05,0.0003925911012683861,0.0007348500100663709,-0.00026172740084568614,-0.0009160459029596153,-0.0007449164485604799,0.001187839742299124,-0.0010871753573586077,-0.0021441513992350317,-0.001530098651097252,-0.001862291121401271,-0.0016911616670022785,-0.0011777733038051583,-0.0006744513791021469,-0.0015703644050735445,-0.002134084960740923,-0.0023454801691162076,-0.002415945238574684,-0.0025568753774914926,-0.0027582041473726685,-0.002456210992550833,-0.0021139520837528485,-0.0026273404469499685,-0.003311858264546081,-0.0033722568955104485,-0.0039057781356956435,-0.004127239782564894,-0.003865512381719351,-0.0043487014294342876,-0.0037849808737669094,-0.003523253472921366,-0.0025669418159856017,-0.003392389772498523,-0.0042379706059996625,-0.003915844574189752,-0.0032917253875578635,-0.0035031205959331485,-0.004992953493054251,-0.005264747332393903,-0.0057278035031206225,-0.005123817193476951,-0.003342057580028265,-0.002738071270384594,-0.003714515804308433,-0.0049728206160660334,-0.0051741493859473525,-0.005637205556674072,-0.0049728206160660334,-0.005244614455405685,-0.0058184014495671725,-0.005335212401852236,-0.005959331588483981,-0.005556674048721629,-0.004892289108113591,-0.004902355546607701,-0.005083551439500802,-0.003986309643648085,-0.005113750754982985,-0.0054157439098046775,-0.004992953493054251,-0.005023152808536434,-0.004479565129857131,-0.004318502113952104,-0.0035433863499094408,-0.0034326555264748157,-0.00387557882021346,-0.003402456210992632,-0.003462854841956999,-0.003664183611838175,-0.003533319911415332,-0.004117173344070928,-0.004056774713106561,-0.004590295953291756,-0.005254680893899794,-0.005154016508959134,-0.00451983088383328,-0.00428830279846992,-0.004902355546607701,-0.005546607610227521,-0.005607006241191888,-0.005848600765049356,-0.005033219247030401,-0.00536541171733442,-0.005335212401852236,-0.004791624723172932,-0.003714515804308433,-0.004529897322327389,-0.0049728206160660334,-0.005254680893899794,-0.004912421985101666,-0.00442923293738673,-0.003935977451177827,-0.003956110328165901,-0.0035836521038857335,-0.003060197302194504,-0.00355345278840355,-0.0039057781356956435,-0.0040165089591302685,-0.004962754177572068,-0.005395611032816603,-0.005123817193476951,-0.00545600966378097,-0.004922488423595775,-0.004932554862089884,-0.004992953493054251,-0.004670827461244198,-0.004217837729011444,-0.003956110328165901,-0.003845379504731276,-0.004308435675457995,-0.004862089792631408,-0.004841956915643333,-0.004902355546607701,-0.004268169921481846,-0.00387557882021346,-0.0032413931950876053,-0.003080330179182579,-0.0032313267565934967,-0.0031709281256291294,-0.002788403462854852,-0.002043487014294372,-0.0016810952285081697,-0.0016106301590496938,-0.001409301389168518,-0.001600563720555728,-0.0010066438494061658,-0.0008556472719952482,-0.0001610630159050266,0.0005838534326554532,0.0001811958928931013,0.00034225890879798485,0.0005133883631971203,0.0012281054962754165,0.000603986309643671,-0.0008858465874774317,-0.0014495671431448104,-0.00046305617072686206,0.00016106301590488356,0.0005737869941614874,0.0007147171330782962,0.0016508959130259863,0.0019528890678478217,0.001741493859472537,0.001932756190859604,0.0018723575598952368,0.0017918260519427952,0.0015804308435675102,0.001127441111334757,0.0006543185021139292,0.0003623917857862026,-0.000332192470304019,-0.0005637205556673785,-0.0005033219247030115,-0.00017112945439913546,-0.0001006643849406595,-0.0005536541171734127,0.0004529897322327532,0.0006543185021139292,0.0012885041272397836,0.0008153815180189558,0.0005033219247030115,0.000463056170726719,7.046506945833291e-05,0.00021139520837528482,4.026575397614936e-05,9.059794644655065e-05,-0.00031205959331594434,-0.0008153815180189558,-0.0008355143950070304,-0.0008556472719952482,-0.0009059794644655064,-0.0009764445339239824,-0.0006341856251258545,-0.000593919871149562,-0.0011073082343466825,-0.0009261123414535811,-0.0011073082343466825,-0.0011375075498288659,-0.0014998993356150686,-0.0015602979665794356,-0.0015804308435675102,-0.0017515602979666458,-0.002083752768270665,-0.002043487014294372,-0.0023857459230925003,-0.0018220253674249786,-0.0018522246829071622,-0.0019025568753775635,-0.0023152808536340244,-0.0021542178377289977,-0.0011274411113349001,-0.0013187034427219672,-0.0017918260519427952,-0.002083752768270665,-0.0018119589289310129,-0.0015099657741091774,-0.002073686329776556,-0.0026273404469499685,-0.002043487014294372,-0.0018522246829071622,-0.0016810952285081697,-0.002124018522246814,-0.002667606200926118,-0.0023152808536340244,-0.002204550030199399,-0.002244815784175548,-0.0026877390779143358,-0.0033722568955104485,-0.004046708274612452,-0.0037044493658144675,-0.003342057580028265,-0.003482987718945074,-0.004207771290517479,-0.004036641836118487,-0.003865512381719351,-0.0038957116972015344,-0.004378900744916471,-0.00481175760016115,-0.004580229514797647,-0.00429836923696403,-0.004278236359975812,-0.0044594322528689135,-0.004680893899738307,-0.004278236359975812,-0.003966176766660011,-0.003935977451177827,-0.004368834306422363,-0.004610428830279831,-0.004308435675457995,-0.004308435675457995,-0.004207771290517479,-0.004650694584256123,-0.004902355546607701,-0.004690960338232415,-0.004912421985101666,-0.0052848802093819775,-0.005154016508959134,-0.005033219247030401,-0.004992953493054251,-0.005385544594322494,-0.004922488423595775,-0.005023152808536434,-0.004801691161667041,-0.005435876786792896,-0.005898932957519615,-0.005798268572579098,-0.006231125427823634,-0.005848600765049356,-0.005848600765049356,-0.006623716529092019,-0.006120394604389008,-0.006341856251258402,-0.007147171330783249,-0.006986108314878222,-0.007207569961747616,-0.00732836722367635,-0.007267968592711983,-0.007197503523253507,-0.0072176364002415816,-0.008214213811153639,-0.008214213811153639,-0.007298167908194167,-0.008274612442118006,-0.008566539158445732,-0.008556472719951767,-0.008214213811153639,-0.00830481175760019,-0.008546406281457657,-0.008566539158445732,-0.008224280249647747,-0.008093416549224904,-0.00820414737265953,-0.0086772699818805,-0.009100060398630927,-0.008657137104892283,-0.008506140527481365,-0.007630360378498185,-0.007539762432051635,-0.007278035031205949,-0.006744513791020754,-0.006462653513187136,-0.006029796657942458,-0.006029796657942458,-0.006019730219448348,-0.006251258304811851,-0.006412321320716735,-0.0061304610428831174,-0.0060398630964365665,-0.005908999396013723,-0.0061304610428831174,-0.005908999396013723,-0.006231125427823634,-0.00630159049728211,-0.006704248037044462,-0.006653915844574203,-0.006341856251258402,-0.005758002818602805,-0.005979464465472199,-0.006291524058788,-0.00639218844372866,-0.006100261727400934,-0.0053050130863700525,-0.004449365814374947,-0.004338634990940179,-0.0027481377088787026,-0.0035836521038857335,-0.0038252466277432016,-0.0039057781356956435,-0.003935977451177827,-0.0036541171733440662,-0.004328568552446213,-0.00471109321522049,-0.004831890477149225,-0.004841956915643333,-0.005053352124018618,-0.005023152808536434,-0.005154016508959134,-0.0055063418562512284,-0.005687537749144329,-0.006402254882222769,-0.007187437084759398,-0.007147171330783249,-0.0067545802295148625,-0.006593517213609836,-0.006623716529092019,-0.006502919267163286,-0.006321723374270184,-0.006049929534930532,-0.0051942822629354275,-0.005143950070465169,-0.005033219247030401,-0.005385544594322494,-0.005023152808536434,-0.0047714918461848575,-0.005164082947453244,-0.00535534527884031,-0.005747936380108697,-0.005828467888061282,-0.006009663780954383,-0.0062210589893296675,-0.0061606603583653,-0.006100261727400934,-0.006361989128246476,-0.007076706261324773,-0.007298167908194167,-0.0073082343466881325,-0.007358566539158533,-0.007559895309039709,-0.007791423394403069,-0.007600161063016002,-0.007630360378498185,-0.007580028186027784,-0.008455808335011108,-0.008647070666398316,-0.008737668612844867,-0.00891886450573797,-0.00806321723374272,-0.007529695993557526,-0.007157237769277214,-0.006583450775115727
2019-04-11,0.0,-0.0021223445306470935,-0.00363540355010362,-0.004031439132377489,-0.005442950566635539,-0.003361225070067865,-0.004315772370932991,-0.004041593890897235,-0.00363540355010362,-0.0034627726552661966,-0.0037369511353019516,-0.0048438198139648635,-0.00508753401844109,-0.004122831959056074,-0.0025488443884804906,-0.00040619034079361513,0.0032393679678297516,0.004143141476095711,0.004803200779885444,0.0048438198139648635,0.0053007839473577885,0.005625736219992709,0.005239855396238732,0.004975831674722723,0.005442950566635539,0.004711807953206859,0.004742272228766387,0.00540233153255612,0.005057069742881562,0.0063061050408220794,0.007230188066127821,0.007900402128437446,0.008966651773020792,0.008824485153743043,0.008743247085584348,0.008834639912262932,0.007890247369917554,0.007565295097282633,0.007453592753564266,0.006935700069052428,0.0069052357934929,0.007270807100207096,0.006996628620171485,0.007900402128437446,0.008408140054429535,0.009281449287135967,0.009352532596774914,0.00998212762500512,0.010175068036882036,0.01066249644583449,0.011505341402981392,0.012642674357203832,0.012185710223810906,0.012002924570453736,0.012033388846013265,0.01179982940005693,0.010723424996953546,0.009860270522767006,0.010053210934643923,0.009179901701937491,0.009281449287135967,0.009017425565620102,0.009372842113814553,0.009850115764247115,0.010225841829481346,0.00998212762500512,0.0094439254234535,0.010185222795401927,0.01089605589179097,0.010956984442910026,0.01089605589179097,0.010804663065112385,0.010063365693163814,0.010093829968723341,0.009636865835330416,0.010012591900564647,0.010368008448759097,0.009423615906413718,0.008367521020350117,0.007778545026199331,0.008347211503310479,0.008194890125512838,0.008133961574393781,0.008326901986270842,0.007392664202445209,0.005534343393314124,0.005371867256996591,0.006011617043746687,0.005442950566635539,0.00485397457248461,0.004112677200536183,0.004122831959056074,0.002802713351476464,0.0018989398432105041,0.002203582598805788,0.001259190056460409,0.0012287257809008806,0.0024574515618019056,0.003259677484869389,0.004031439132377489,0.003544010723425035,0.00345261789674645,0.004082212924976654,0.005371867256996591,0.0059405337341078834,0.0066005930378976166,0.0061233193874649094,0.00581867663186977,0.0043665461635323,0.0032495227263496427,0.002802713351476464,0.0032495227263496427,0.002406677769202595,0.0014825947438969983,0.0012490352979406623,0.001543523295016055,0.0019294041187700327,0.0018989398432105041,0.0010967139201430206,0.0014622852268573608,0.0008326901986271564,0.0007717616475080996,0.001035785369023964,0.000324952272634921,0.0007514521304683178,0.0009850115764246537,-0.00020309517039680756,-9.139282667858505e-05,-0.00026402372151586426,-0.001218571022381134,-0.0036049392745440916,-0.00472196271172675,-0.004122831959056074,-0.0038181892034607904,-0.00395020106421865,-0.002751939558877298,-0.003076891831512219,-0.0025894634225597656,-0.0023051301840042635,-0.0022645111499248445,-0.0017466184654128625,-0.00321905845078997,-0.004508712782810051,-0.005331248222917317,-0.004742272228766387,-0.0046610341606076935,-0.00321905845078997,-0.003178439416710695,-0.003868962996059956,-0.004264998578333824,-0.005239855396238732,-0.0049352126406434485,-0.0045696413339291085,-0.004640724643567911,-0.0046610341606076935,-0.004925057882123557,-0.004264998578333824,-0.00363540355010362,-0.004031439132377489,-0.0047524269872862785,-0.004397010439091685,-0.00418376051017513,-0.004021284373857598,-0.004234534302774296,-0.0032292132093098606,-0.0030159632803931622,-0.004112677200536183,-0.00448840326577027,-0.004762581745806025,-0.004112677200536183,-0.004742272228766387,-0.004681343677647331,-0.004803200779885444,-0.00400097485681796,-0.003868962996059956,-0.004031439132377489,-0.005534343393314124,-0.006529509728258669,-0.007352045168365935,-0.007504366546163576,-0.007341890409846044,-0.007209878549088039,-0.006763069174215005,-0.006905235793492756,-0.007524676063203214,-0.0077886997847190775,-0.006742759657175367,-0.006377188350461027,-0.006976319103131704,-0.0062248669726633855,-0.0063162597993419705,-0.007341890409846044,-0.007362199926885681,-0.006295950282302333,-0.005544498151833871,-0.004457938990210741,-0.004315772370932991,-0.004224379544254406,-0.0035541654819447816,-0.0037471058938218426,-0.00321905845078997,-0.002335594459563792,-0.0016653803972541683,-0.0017973922580120283,-0.0012896543320199373,-0.0008022259230674836,-0.0015841423290954742,-0.0010764044031032387,-0.0012896543320199373,-0.0010459401275437104,-0.00016247613631753264,0.00013201186075800428,-0.00045696413339292526,-0.0001218571022381134,-0.0001726308948372792,-5.0773792599165814e-05,-0.00027417848003575515,-0.000416345099313506,-0.0006803688208293703,0.00020309517039680756,0.00039603558227386854,7.108330963894759e-05,-0.0002335594459563359,-0.0004874284089524536,-0.0003351070311548118,-0.0008022259230674836,-0.0011982615053413523,-0.0004772736504325627,0.0003554165481944493,0.0012490352979406623,0.0010865591616231298,0.001309963849059719,0.00236605873512332,0.0036658678256631483,0.004325927129452881,0.003676022584182895,0.0019395588772899235,0.0007006783378691521,0.001827856533571701,0.0028331776270359922,0.003036272797432944,0.0019090946017303952,0.0017973922580121727,0.0025589991470002372,0.002843332385555883,0.0033409155530282277,0.002416832527722486,0.00163491612169464,0.0009443925423453788,0.001208416263861243,0.0008123806815873746,0.000507737925992091,0.0006397497867500953,0.0007616068889882087,0.0009037735082659596,0.001167797229781824,0.001919249360250286,0.002244201632885207,0.0035338559649051443,0.0038994272716194843,0.004285308095373462,0.004163450993135348,0.0035237012063852532,0.003594784516024201,0.0036150940330638382,0.0041025224420162916,0.004305617612413244,0.004072058166456763,0.00413298671757582,0.004072058166456763,0.003828343961980537,0.0031885941752305856,0.00326983224338928,0.003777570169381371,0.00418376051017513,0.004204070027214768,0.0038588082375400653,0.0038486534790203187,0.00400097485681796,0.004457938990210885,0.0037064868597424232,0.004122831959056074,0.004671188919127584,0.005148462569560147,0.0054835696007149584,0.005229700637718841,0.00540233153255612,0.005503879117754596,0.005879605182988827,0.005605426702953072,0.004640724643568055,0.003929891547179013,0.0034323083797066683,0.0035135464478655066,0.0038892725130995937,0.0036557130671432576,0.004061903407937017,0.004122831959056074,0.004254843819813934,0.004072058166456763,0.004234534302774296,0.004386855680571938,0.00413298671757582,0.0036252487915837293,0.0037572606523417337,0.003544010723425035,0.0032495227263496427,0.003168284658190804,0.002802713351476464,0.0027417848003574072,0.002873796661115411,0.002751939558877298,0.002244201632885207,0.002691011007758241,0.0031885941752305856,0.003127665624111529,0.0034729274137860876,0.0036150940330638382,0.0036455583086233666,0.0036557130671432576,0.0037064868597424232,0.003503391689345616,0.0034729274137860876,0.004092367683496545,0.0035541654819447816,0.0028331776270359922,0.002274665908444735,0.0027316300418376606,0.0023559039766034295,0.0023965230106828485,0.0020207969454486174,0.00236605873512332,0.002477761078841543,0.0027925585929567173,0.0035643202404646726,0.004285308095373462,0.004498558024290161,0.0038588082375400653,0.0036150940330638382,0.0037978796864210082,0.0035744749989845633,0.0036557130671432576,0.003594784516024201,0.003594784516024201,0.0036455583086233666,0.004061903407937017,0.004275153336853715,0.004864129331004501,0.004559486575409217,0.004285308095373462,0.004051748649417126,0.003868962996059956,0.004122831959056074,0.004153296234615602,0.0038892725130995937,0.0034424631382265593,0.0032190584507901143,0.0028839514196353023,0.0029245704537145772,0.002944879970754359,0.0031378203826312756,0.0029753442463138872,0.00395020106421865,0.003929891547179013,0.0033104512774686993,0.003259677484869389,0.003290141760428917,0.003290141760428917,0.0032089036922702233,0.0031987489337503322,0.0033002965189488083,0.0032292132093098606,0.0027214752833177695,0.0025488443884804906,0.0023965230106828485,0.002508225354401071,0.0024574515618019056,0.0021629635647263685,0.00249807059588118,0.0030464275559526906,0.00358462975750431,0.003594784516024201,0.0035338559649051443,0.0038181892034607904,0.004407165197611576,0.004793046021365553,0.004671188919127584,0.004407165197611576,0.004671188919127584,0.0035135464478655066
2019-04-12,0.0,0.005197423800481628,0.006734138558816068,0.008104457451598409,0.009827144059667649,0.010580819450697915,0.007761877728402858,0.009494352328563308,0.009239864534189483,0.009063680676546032,0.011579194644010795,0.014593896208131861,0.015582483409353394,0.01634594679247501,0.016003367069279458,0.016375310768748916,0.015592271401444743,0.016306794824109752,0.014329620421666687,0.013585733022727768,0.014124072587749328,0.013644460975275587,0.013801068848736338,0.014554744239766743,0.015513967464714368,0.016238278879470724,0.01616976293483156,0.015925063132549083,0.012655873774054053,0.012342658027132412,0.010590607442789264,0.009318168470919859,0.006763502535089976,0.00773251375212895,0.007350782060568142,0.007360570052659491,0.0074780259577551245,0.00533445568975982,0.0048842080535599856,0.0057749153338684436,0.008114245443689758,0.008554705087798382,0.008554705087798382,0.007203962179198601,0.007096294266194317,0.007017990329463802,0.007399722021024609,0.006215374977977068,0.00550085155531192,0.0059217352152379854,0.006264314938433536,0.007194174187107252,0.008310005285515766,0.01049272752187619,0.011853258422567181,0.011774954485836805,0.012068594248575888,0.01254820586104963,0.012509053892684512,0.012088170232758447,0.01099191511853263,0.009905447996398024,0.011412798778458556,0.009729264138754573,0.010522091498150098,0.008182761388328784,0.008153397412054876,0.008202337372511482,0.009014740716089565,0.008016365522776684,0.005823855294324911,0.004942936006107802,0.005040815927020737,0.005031027934929527,0.005128907855842461,0.005941311199420545,0.007066930289920408,0.0057847033259597926,0.005070179903294645,0.006156647025429252,0.006724350566724719,0.006557954701172619,0.007585693870759408,0.007654209815398435,0.0078891216255897,0.008319793277607115,0.007272478123837766,0.0077227257600376,0.008035941506959243,0.007458449973572426,0.0070375663136465,0.008045729499050592,0.0075563298944855,0.008505765127341774,0.008427461190611399,0.007840181665133233,0.006783078519272535,0.00584343127850761,0.006655834622085692,0.007233326155472509,0.0077912417046767666,0.007487813949846335,0.007585693870759408,0.007233326155472509,0.006792866511363884,0.006499226748624801,0.006978838361098683,0.006724350566724719,0.006460074780259544,0.00618601100170316,0.006166435017520601,0.006313254898890142,0.0069984143452812425,0.007429085997298517,0.007370358044750701,0.006734138558816068,0.007311630092202885,0.0073899340289334,0.007429085997298517,0.007487813949846335,0.0075563298944855,0.00721375017128995,0.006959262376915985,0.0071354462345594345,0.007262690131746417,0.007977213554411427,0.007663997807489784,0.007331206076385583,0.007761877728402858,0.007869545641407141,0.006929898400642077,0.0068613824560030505,0.007331206076385583,0.007497601941937684,0.0078891216255897,0.0077423017442201595,0.0073899340289334,0.0076052698549419675,0.007360570052659491,0.007331206076385583,0.008212125364602692,0.008681948984985225,0.009053892684454683,0.01049272752187619,0.010894035197619556,0.011148522991993521,0.01149110271518907,0.01117788696826743,0.011099583031536913,0.011902198383023787,0.01188262239884109,0.011980502319754163,0.011784742477928154,0.011461738738915163,0.011070219055263005,0.011383434802184648,0.011099583031536913,0.01098212712644128,0.011784742477928154,0.012176262161580171,0.012000078303936722,0.011393222794275997,0.01135407082591074,0.011285554881271713,0.010884247205528346,0.01097233913435007,0.011295342873362924,0.011823894446293273,0.012264354090401896,0.012509053892684512,0.01235244601922362,0.012381809995497529,0.011774954485836805,0.011217038936632548,0.010600395434880474,0.011001703110623979,0.01099191511853263,0.010923399173893464,0.010874459213436997,0.011726014525380338,0.012577569837323539,0.012469901924319255,0.012626509797780145,0.012577569837323539,0.012107746216941145,0.01201965428811942,0.01153025468355419,0.011941350351388906,0.012606933813597447,0.012910361568427878,0.013722764912005962,0.01513223577315356,0.015494391480531668,0.015768455259088193,0.016776618444492283,0.01751071785133999,0.017393261946244357,0.017608597772253064,0.01823502926609635,0.01875379284693535,0.018088209384726807,0.018000117455905084,0.018626548949748505,0.018851672767848424,0.01978153201652214,0.020760331225652462,0.020926727091204564,0.02165103850596092,0.022590685746725986,0.022757081612278084,0.023686940860951803,0.024871287903999343,0.02522365561928624,0.02522365561928624,0.025536871366208025,0.024949591840729857,0.025018107785368886,0.024978955817003767,0.024332948338977783,0.024186128457608244,0.02529217156392541,0.02513556369046452,0.024000156607873444,0.024469980228255975,0.024822347943542877,0.024450404244073416,0.02493001585654716,0.0247440440068125,0.025321535540199315,0.025507507389934115,0.025350899516473225,0.025321535540199315,0.025468355421568858,0.02529217156392541,0.025840299121038315,0.026417790654425132,0.02650588258324686,0.02780768553139017,0.027514045768651088,0.027729381594659656,0.0278762014760292,0.02836560108059429,0.028620088874968256,0.028081749309946558,0.027729381594659656,0.02833623710432052,0.029442280210637686,0.030205743593759164,0.030176379617485254,0.03080281111132868,0.0319480061860111,0.03261358964821964,0.03264295362449355,0.032672317600767456,0.0331519292132412,0.033494508936436754,0.03131178670007633,0.029686980012920163,0.02936397627390717,0.030049135720298412,0.03112581485034167,0.03129221071589377,0.030978994968972128,0.03259401366403694,0.03170330638372849,0.03198715815437622,0.03223185795665883,0.032006734138558916,0.03128242272380242,0.03320086917369781,0.03312256523696729,0.033445568975980285,0.03430691228001497,0.03440479220092791,0.03476694790830616,0.03560871522815815,0.03513889160777561,0.03455161208229745,0.03471800794784955,0.03498228373431472,0.0345614000743888,0.03487461582131044,0.035011647710588636,0.03486482782921909,0.03527592349705381,0.03601002290390151,0.03728246187577078,0.03762504159896647,0.037742497504062104,0.03728246187577078,0.03628408668245804,0.034483096137658285,0.03460055204275392,0.034649492003210526,0.034639704011119175,0.03379793669126718,0.03346514496016284,0.03259401366403694,0.0327995614979543,0.03299532133978045,0.0358142630620755,0.03748800970968814,0.036195994753636315,0.03544231936260605,0.03590235499089723,0.03600023491181017,0.03587299101462332,0.03465927999530173,0.033856664643815,0.03316171720533255,0.03288765342677603,0.03207525008319794,0.03125305874752851,0.030489595364407037,0.02985337587847226,0.02903118454280297,0.029138852455807253,0.02940312824227243,0.02936397627390717,0.02955973611573332,0.028600512890785555,0.03077344713505477,0.02836560108059429,0.029608676076189788,0.028972456590255154,0.029892527846837522,0.029442280210637686,0.029187792416263722,0.02985337587847226,0.030881115048059054,0.030685355206233045,0.03245698177475875,0.033660904801988994,0.03474737192412346,0.03517804357614087,0.03518783156823208,0.035461895346788605,0.03497249574222352,0.036802850263297035,0.037429281757140324,0.03778164947242722,0.03808507722725765,0.03778164947242722,0.039817551827418106,0.04127596264902217,0.04142278253039171,0.04036567938453115,0.04040483135289627,0.03933794021494436,0.03842765695045321,0.03728246187577078,0.036127478808997145,0.03481588786876262,0.03702797408139696,0.03418945637491934,0.03392518058845417,0.033455356968071635,0.03283871346631956,0.03358260086525847,0.03512910361568427,0.03428733629583228,0.03371963275453681,0.03334768905506721,0.033817512675449746,0.034120940430280175,0.03398390854100198,0.032936593387232635,0.032359101853845676,0.03254507370358048,0.03274083354540649,0.03312256523696729,0.03247655775894131,0.0326331656324022,0.032408041814302284,0.032036098114832684,0.031536910518176385,0.031673942407454574,0.03162500244699811,0.03106708689779385,0.031223694771254605,0.03091047902433296,0.030685355206233045,0.030460231388133127,0.030117651664937437,0.030029559736115714,0.03093005500851552,0.03162500244699811,0.031732670360002393,0.031184542802889487,0.031057298905702503
2019-04-15,0.0,-0.0010530648975176334,-0.005322764391089131,-0.004815378576830659,-0.007170414620370059,-0.009487157394908907,-0.010626382147677986,-0.010061556429918414,-0.009716917008912765,-0.0078118268761307365,-0.008568118938893478,-0.009956249940166691,-0.013967469867983851,-0.01549920062800961,-0.015049254717251966,-0.015681093655762573,-0.014953521544750449,-0.015537493897010162,-0.015259867696755547,-0.014599308806494458,-0.014053629723235296,-0.013766430205730476,-0.014608882123744664,-0.016178906152770976,-0.0137472835712302,-0.012732511942713255,-0.013278191025972415,-0.010559368926926816,-0.008108599710885765,-0.009180811242903673,-0.00987966340216545,-0.007917133365882595,-0.006758761978613103,-0.007199134572120541,-0.007400174234373917,-0.007677800434628532,-0.007639507165627843,-0.008989344897900504,-0.006519429047359176,-0.0078118268761307365,-0.008692572063145478,-0.008204332883387417,-0.009161664608403397,-0.009439290808658013,-0.010521075657926128,-0.009956249940166691,-0.008309639373139138,-0.008434092497391273,-0.01068382205117895,-0.010722115320179504,-0.01047320907167537,-0.011315660989689422,-0.010923154982432879,-0.009975396574666968,-0.010655102099428469,-0.011172061230937011,-0.011057181423935082,-0.01124864776893839,-0.012225126128454646,-0.012617632135711326,-0.013689843667729235,-0.016322505911523386,-0.016552265525527243,-0.01650439893927635,-0.016140612883770288,-0.016734158553280205,-0.016849038360282134,-0.016092746297519528,-0.017260691002039093,-0.017212824415788197,-0.017586183788544464,-0.018581808782561136,-0.01811271623730335,-0.019041328010568848,-0.019338100845323877,-0.019433834017825394,-0.018869008300065954,-0.019175354452071188,-0.01968274026632966,-0.019462553969575875,-0.018208449409804865,-0.018131862871803624,-0.018055276333802387,-0.01823716936155535,-0.017576610471294395,-0.01782551671979853,-0.018246742678805553,-0.017806370085298253,-0.018218022727055073,-0.01727983763653937,-0.017337277540040334,-0.01848607561005962,-0.0196253003628287,-0.020352872473840822,-0.020295432570339857,-0.021070871267602875,-0.02133892415060742,-0.021281484247106457,-0.020764525115597777,-0.02019969939783834,-0.019146634500320708,-0.018332902534057,-0.01825631599605576,-0.018869008300065954,-0.018821141713815197,-0.018840288348315474,-0.019558287142077527,-0.021118737853853632,-0.022095216213370027,-0.023282307552389865,-0.023062121255636215,-0.022688761882879944,-0.02338761404214172,-0.022794068372631805,-0.022324975827373885,-0.023425907311142274,-0.022832361641632357,-0.023722680145897304,-0.02288980154513332,-0.02259302871037843,-0.022037776309869063,-0.020630498674095436,-0.020429459011842198,-0.0208698316053495,-0.02080281838459833,-0.020678365260346332,-0.021137884488354047,-0.02094641814335074,-0.02008481959083641,-0.02028585925308979,-0.019749753487080697,-0.01818930277530459,-0.018629675368812028,-0.019778473438831178,-0.019261514307322637,-0.019309380893573393,-0.018648822003312304,-0.01859138209981134,-0.018553088830810652,-0.020553912136094196,-0.02065921862584592,-0.021109164536603563,-0.020352872473840822,-0.020448605646342474,-0.02054433881884399,-0.02104215131585239,-0.020228419349588824,-0.02019969939783834,-0.020142259494337376,-0.020573058770594472,-0.021549537130110867,-0.021903749868366858,-0.02220052270312175,-0.022152656116870992,-0.02194204313736741,-0.021281484247106457,-0.020525192184343715,-0.021070871267602875,-0.020745378481097365,-0.020439032329092267,-0.021137884488354047,-0.020783671750098053,-0.02172185684061376,-0.021932469820117338,-0.02153039049561059,-0.021626123668112243,-0.02189417655111665,-0.021501670543860107,-0.022277109241123125,-0.022210096020371956,-0.021520817178360383,-0.021626123668112243,-0.021405937371358454,-0.021539963812860795,-0.0219803364063681,-0.021951616454617615,-0.02262174866212891,-0.022727055151880633,-0.022995108034885043,-0.02311956115913718,-0.022679188565629876,-0.02276534842088132,-0.023167427745387936,-0.02350249384914365,-0.02347377389739317,-0.022803641689881873,-0.02230582919287361,-0.022229242654872233,-0.023014254669385455,-0.022679188565629876,-0.022248389289372644,-0.02194204313736741,-0.021951616454617615,-0.022238815972122437,-0.02284193495888256,-0.02293766813138408,-0.022210096020371956,-0.022181376068621472,-0.022449428951626018,-0.022018629675368787,-0.021654843619862724,-0.022133509482370715,-0.0222962558756234,-0.022794068372631805,-0.02251644217237705,-0.022660041931129464,-0.021999483040868375,-0.021578257081861348,-0.02186545659936617,-0.021808016695865205,-0.02119532439185501,-0.02120489770910508,-0.021386790736858178,-0.020515618867093643,-0.02028585925308979,-0.02080281838459833,-0.020716658529346885,-0.0208698316053495,-0.020965564777851154,-0.021511243861110314,-0.021875029916616374,-0.02194204313736741,-0.022363269096374573,-0.022430282317125606,-0.022650468613879392,-0.02288022822788325,-0.02288022822788325,-0.02284193495888256,-0.023196147697138417,-0.02288022822788325,-0.02292809481413401,-0.021578257081861348,-0.022018629675368787,-0.021511243861110314,-0.021080444584853083,-0.020716658529346885,-0.021099591219353356,-0.02098471141235143,-0.02072623184659709,-0.01995079314933407,-0.019242367672822225,-0.019701886900829937,-0.020151832811587448,-0.020161406128837652,-0.02053476550159392,-0.020592205405094884,-0.02050604554984344,-0.02018055276333793,-0.019701886900829937,-0.01951999387307684,-0.01980719339058166,-0.019606153728328284,-0.0191370611830705,-0.019271087624572705,-0.0196253003628287,-0.019587007093828008,-0.019347674162573946,-0.01951042055582677,-0.01979762007333159,-0.019644446997328972,-0.019385967431574634,-0.018964741472567607,-0.019414687383325118,-0.0191370611830705,-0.019280660941822913,-0.019414687383325118,-0.019701886900829937,-0.02017097944608786,-0.02019969939783834,-0.019788046756081385,-0.01878284844481451,-0.018859434982815886,-0.018677541955062788,-0.01881156839656499,-0.01811271623730335,-0.01866796863781258,-0.01922322103832195,-0.019232794355572153,-0.019701886900829937,-0.019472127286826083,-0.01939554074882484,-0.019558287142077527,-0.019481700604076287,-0.019424260700575322,-0.019089194596819743,-0.019165781134820984,-0.01892644820356692,-0.018763701810314233,-0.018505222244559895,-0.019156207817570776,-0.019127487865820296,-0.019261514307322637,-0.020381592425591302,-0.020525192184343715,-0.02053476550159392,-0.021080444584853083,-0.021664416937112796,-0.021635696985362312,-0.02164527030261252,-0.021520817178360383,-0.02080281838459833,-0.021712283523363688,-0.022908948179633733,-0.022861081593382838,-0.023435480628392482,-0.023789693366648473,-0.024574705381161563,-0.02490019816766707,-0.025196971002421964,-0.02537886403017506,-0.026393635658692006,-0.027092487817953783,-0.028155126032721488,-0.028317872425974312,-0.028346592377724793,-0.028451898867476514,-0.028116832763720935,-0.027934939735967838,-0.028097686129220523,-0.02813597939822121,-0.02860507194347913,-0.027571153680461775,-0.027149927721454747,-0.026585102003695175,-0.026355342389691453,-0.02664254190719614,-0.026412782293192417,-0.02603942292043615,-0.025646916913179472,-0.0262596092171898,-0.025560757057928023,-0.02615430272743808,-0.026364915706941525,-0.02590539647893381,-0.025857529892683053,-0.025972409699684982,-0.025484170519926783,-0.025838383258182777,-0.026068142872186634,-0.0261255827756876,-0.02611600945843739,-0.026077716189436703,-0.0262596092171898,-0.027331820749207713,-0.027331820749207713,-0.026623395272695864,-0.026221315948189113,-0.026594675320945383,-0.02663296858994607,-0.026872301521199998,-0.0264415022449429,-0.026834008252199445,-0.026585102003695175,-0.026690408493447036,-0.026805288300448964,-0.026518088782944142,-0.026498942148443866,-0.026518088782944142,-0.02664254190719614,-0.0268818748384502,-0.026403208975942213,-0.026364915706941525,-0.026479795513943454,-0.02615430272743808,-0.02587667652718333,-0.02599155633418526,-0.026058569554936427,-0.025943689747934498,-0.02560862364417892,-0.02546502388542651,-0.0256373435959294,-0.025417157299175614,-0.025330997443924166,-0.026077716189436703,-0.026326622437940973,-0.027006327962702338,-0.026317049120690765,-0.025742650085681124,-0.025082091195420035,-0.024230065960155776,-0.023933293125400885,-0.024411958987908874,-0.02428750586365674,-0.023952439759901162,-0.024038599615152607,-0.024048172932402814,-0.024268359229156464,-0.024134332787654124,-0.024182199373905016,-0.023215294331638832
2019-04-16,0.0,0.0005790785780185453,0.0,1.962978230580796e-05,0.00025518716997438763,-0.0004122254284200145,-0.0019629782305713114,-0.0034941012504170793,-0.0038278075496142806,-0.004269477651492867,-0.003965216025754239,-0.005849675127102737,-0.005820230453644165,-0.005918379365172786,-0.004593369059537025,-0.0036216948354042735,-0.002257424965157036,-0.0016979761694442988,-0.0036020650530984655,-0.004416701018785591,-0.006369864358204276,-0.007694874663839898,-0.007704689554992802,-0.006585791963567049,-0.005388375242918481,-0.005408005025224289,-0.005260781657931427,-0.0063207899024398965,-0.00592819425632569,-0.005869304909408545,-0.005074298726027089,-0.004976149814498467,-0.004544294603772784,-0.0040633649372828606,-0.004220403195728487,-0.0043676265630213495,-0.004544294603772784,-0.004868186011817081,-0.004711147753371315,-0.00418114363111715,-0.0040633649372828606,-0.003857252223072853,-0.0024537227882142788,-0.0017863101898200162,-0.0022868696386156087,-0.00226723985630994,-0.0027285397404941954,-0.003523545923875652,-0.0037394735292385632,-0.0033468778831242173,-0.0025813163732013333,-0.002257424965157036,-0.0019335335571128785,-0.0016783463871384908,-0.001894273992501402,-0.001570382584457105,-0.0019335335571128785,-0.0013250103056356214,0.00017666804075143478,0.0015016783463871956,0.0020905718155586448,0.001540937910998672,0.0006281530337829257,0.0004907445576429674,0.000382780754961442,0.0002748169522800561,0.0009618593329799872,0.0011974167206485668,0.0012464911764129474,0.0010600082445086085,0.0011974167206485668,0.0014133443260114782,0.0013446400879414293,0.0013250103056357608,0.0008833402037571738,-7.851912922281341e-05,0.00025518716997438763,0.00036315097265577354,-9.814891152764501e-06,-0.00011777869383428985,-0.0006575977072413587,-0.0005987083603242137,-0.00015703825844562682,-6.870423806990942e-05,0.0001374084761400978,-0.0003925956461142065,-0.00015703825844562682,-0.0007753764010756485,-0.0010894529179670417,-0.002492982352825616,-0.0024242781147557064,-0.0029739120193156793,-0.0032290991892899275,-0.0035824352707927967,-0.00413206917535277,-0.005368745460612813,-0.004642443515301405,-0.005192077419861378,-0.004966334923345702,-0.004750407317982791,-0.003788547985002804,-0.002090571815558505,-0.0024046483324498985,-0.0018746442101957336,-0.0011090827002728496,-0.00026500206112715214,-3.9259564611336964e-05,-0.0020316824686413605,-0.0027481695228000033,-0.0031309502777614453,-0.003837622440767045,-0.003297803427359976,-0.002856133325481389,-0.0027972439785642444,-0.003248728971595596,-0.003975030916907143,-0.0033076183185127405,-0.0032290991892899275,-0.0032290991892899275,-0.0029935418016213476,-0.0030131715839271556,-0.0035824352707927967,-0.0034450267946528387,-0.0029935418016213476,-0.0029739120193156793,-0.0028266886520228168,-0.0025518716997427605,-0.002542056808589996,-0.003042616257385728,-0.0033468778831242173,-0.0029542822370100105,-0.0029444673458571065,-0.0027972439785642444,-0.002492982352825616,-0.00226723985630994,-0.0024242781147557064,-0.001992422904029884,-0.0020120526863356917,-0.0017863101898200162,-0.0008342657479927934,-0.0005201892311014003,-1.9629782305668482e-05,0.0002846318434329601,0.0005398190134072083,0.0005987083603243532,0.0007263019453114075,0.001540937910998672,0.001540937910998672,0.0015900123667629128,0.0011876018294958025,0.001462418781775719,0.0015703825844572445,0.0013053805233300922,0.001531123019845768,0.0021985356182400305,0.0023064994209214167,0.0027089099581886667,0.0026303908289657136,0.002502797243978659,0.002345758985532893,0.001962978230571451,0.0020709420332528368,0.002120016489017217,0.001658716604832962,0.0017863101898200162,0.0022377951828515073,0.0026205759378129492,0.002895392890092866,0.002738354631647239,0.0029739120193156793,0.0023850185501443693,0.0024242781147557064,0.0023261292032272247,0.0018059399721256848,0.0004612998841843949,0.0005987083603243532,0.0009913040064385597,0.0009520444418272228,0.0007164870541586431,0.0010305635710500362,0.0012857507410242843,0.0017863101898200162,0.002120016489017217,0.0023653887678385613,0.0026402057201186176,0.0029640971281629145,0.0029542822370100105,0.0028266886520229564,0.0025813163732014725,0.0017568655163614437,0.0013348251967886648,0.0012464911764129474,0.001531123019845768,0.0015900123667629128,0.0017470506252085397,0.002100386706711409,0.0024144632236029417,0.0025813163732014725,0.0024144632236029417,0.0023653887678385613,0.002110201597864313,0.0018059399721256848,0.001835384645584257,0.0009029699860628424,0.0009913040064385597,0.0013446400879414293,0.001462418781775719,0.0018255697544314925,0.0012857507410242843,0.0010109337887443677,0.0013151954144828568,0.0012170465029543748,0.0014133443260114782,0.0010403784622029402,0.001462418781775719,0.0018255697544314925,0.001972793121724355,0.0018157548632785887,0.0020022377951829273,0.0015016783463871956,0.0015998272579158168,0.0015998272579158168,0.0014231592171643822,0.0011679720471899945,0.0009324146595214148,0.001099267809120085,0.001079638026814277,0.0013838996525529057,0.0011974167206485668,0.001364269870247237,0.0017077910605972028,0.001855014427890065,0.0015605676933043405,0.0013053805233300922,0.001364269870247237,0.0011876018294958025,0.0011679720471899945,0.0007164870541586431,0.0004416701018785869,0.0008342657479929329,0.001148342264884326,0.0012857507410242843,0.0012857507410242843,0.0006870423807000705,0.0006575977072414981,0.0005005594487957318,0.0002748169522800561,4.9074455764380424e-05,0.0002748169522800561,0.0004318552107258224,0.0006183381426300217,0.0007459317276172155,0.00032389140804429706,5.8889346917144925e-05,0.0004122254284200145,8.833402037571739e-05,4.9074455764380424e-05,0.0006575977072414981,0.0009716742241328912,0.001540937910998672,0.0014918634552342916,0.0015998272579158168,0.0014918634552342916,0.0015507528021514365,0.0008931550949100778,0.0004318552107258224,0.0003042616257386286,0.0004318552107258224,0.0002748169522800561,0.00035333608150286955,0.0002748169522800561,-3.9259564611336964e-05,0.0002453722788214837,0.0005005594487957318,0.0,0.0005692636868657807,0.001099267809120085,0.0012366762852600434,0.00127593584987152,0.001953163339418547,0.0019924229040300234,0.002522427026284328,0.0026205759378129492,0.002718724849341431,0.0026500206112715216,0.0031996545158314944,0.0033370629919714525,0.004190958522270054,0.004514849930314351,0.005555228392517152,0.0055944879571286285,0.005957638929784262,0.005800600671338635,0.006821349351235768,0.007341538582337168,0.007213944997349974,0.007832283139979995,0.008430991500304349,0.008735253126042838,0.008195434112635768,0.008529140411832831,0.007773393793062851,0.007920617160355713,0.008273953241858582,0.008705808452584266,0.008126729874565721,0.007469132167324362,0.007469132167324362,0.007066721630057112,0.007282649235420023,0.007910802269202809,0.008028580963037098,0.0076261704257699885,0.006939128045070057,0.007066721630057112,0.006988202500834298,0.007164870541585733,0.006978387609681395,0.006252085664369987,0.0063600494670515125,0.006556347290108616,0.00661523663702576,0.006418938813968657,0.006301160120134367,0.006831164242388532,0.006939128045070057,0.006526902616650043,0.006458198378579994,0.00633060479359294,0.005938009147478594,0.005938009147478594,0.0063600494670515125,0.00616375164399427,0.006036158059007215,0.005525783719058579,0.00529022633139,0.005663192195198538,0.005663192195198538,0.005643562412892869,0.006173566535147173,0.006261900555522891,0.00597726871209007,0.005859490018255781,0.0058104155624914,0.0060459729501599795,0.006075417623618552,0.005888934691714353,0.0055748581748228205,0.005250966766778662,0.004809296664900075,0.00481911155605284,0.004681703079912882,0.004514849930314351,0.005162632746402945,0.005417819916377194,0.005447264589835766,0.00533930078715438,0.00529022633139,0.005555228392517152,0.0063404196847457045,0.006222640990911414,0.006566162181261519,0.007243389670808547,0.00685079402469434,0.005987083603242835,0.005241151875625759,0.005466894372141435,0.005888934691714353,0.004966334923345702,0.004397071236480061,0.004073179828435764,0.004505035039161447,0.004357811671868585,0.004750407317982931,0.0040633649372828606,0.004269477651492867,0.004554109494925688,0.0040928096107414325,0.004603183950690069,0.004033920263824288,0.003955401134601474,0.0037787330938500396,0.003994660699212951,0.0044657754745499705,0.004671888188759978,0.004495220148008543,0.004711147753371454,0.004544294603772924,0.004671888188759978,0.004505035039161447
2019-04-17,0.0,0.0017138043551932795,0.0032242759902787444,0.004124749465041315,0.0036212589200128723,0.0027982455291007996,0.002401262599366809,0.0020720572430019523,0.0024980877041800346,0.0018396769914503213,0.0033307836055733336,0.0025271352356239884,0.004115066954559951,0.004037606870709453,0.006254901770931175,0.006148394155636723,0.006099981603230179,0.005063952981729203,0.004628240010069895,0.004163479506966632,0.0043087171641864016,0.005315698254243424,0.004037606870709453,0.00334046611605456,0.0037180840248259603,0.005025222939803885,0.005886966372641138,0.005557761016276282,0.006429186959594898,-1.0096825104813176,0.007378072986764013,0.006845534910291617,0.006913312483660751,0.008849814579924297,0.010515206382710895,0.010215048557790131,0.00933394010399015,0.009488860271691282,0.00739743800772674,0.005654586121089507,0.0050736354922104295,0.003243641011241472,0.003998876828784135,0.004250622101298494,0.005354428296168604,0.004153796996485269,0.004821890219696208,0.003505068794237057,0.0027788805081382095,0.0017331693761558696,0.00261427782995585,0.0036696714724194163,0.004018241849746863,0.003882686703008457,0.004434589800443443,0.005412523359056512,0.004957445366434614,0.0049380803454720235,0.004395859758518263,0.005141413065579701,0.004899350303546706,0.00633236185478181,0.005857918841197184,0.005916013904085092,0.005964426456491636,0.0066712497216278935,0.006855217420772843,0.0052382381703927885,0.0058385538202345945,0.006032204029860907,0.005790141267827913,0.004957445366434614,0.0038923692134896835,0.003524433815199647,0.003020943270171067,0.0023334850259975376,0.002962848207283159,0.003311418584610606,0.0030887208435403384,0.0028563405919887074,0.0023915800888854454,0.0022947549840723574,0.001829994480969095,0.001926819585782183,0.001955867117226137,0.0024206276203293992,0.002052692222039362,0.0015492016770107823,0.0013168214254592888,-0.00010650761529445173,-0.0010360286215009762,-0.0013652339778656953,-0.0013071389149777876,-0.0008714259433186167,-0.0006680932232109395,0.0005712681183977139,0.001694439334230552,0.0021688823478151777,0.0025174527251426247,0.0026530078718810302,0.00213015230588986,0.0022947549840723574,0.0020430097115579984,0.0013845989988284229,0.0005325380764725339,0.0008907909642812068,0.0015492016770107823,0.0014717415931602845,0.00045507799262189843,0.0002904753144395389,0.0009779335586130684,0.0008520609223560266,0.000832695901393299,0.001955867117226137,0.0017041218447119157,0.0013265039359405151,0.0013942815093097867,0.0012780913835339712,0.0012006312996834733,0.0011909487892021095,-3.873004192518012e-05,-6.777757336913402e-05,-0.0007165057756174834,-0.0007261882860988472,-0.0015782492084547362,-0.0008423784118746628,-2.904753144395389e-05,0.0001258726362571794,-0.0004260304611779445,-0.0009488860271691145,-0.0008133308804307089,-0.0009876160690942947,-0.0011909487892019718,-0.0007939658594679813,-0.0009392035166877507,-0.0012780913835338335,-0.0015976142294173263,-0.0017622169075998235,-0.0017912644390437773,-0.0012199963206459257,-0.0010360286215009762,-0.0026336428509183027,-0.0026142778299557126,-0.002469040172735943,-0.0023044374945535837,-0.00214951732685245,-0.0030306257806524306,-0.0035050687942369194,-0.004086019423115997,-0.003805226619157822,-0.004134431975522541,-0.0040085593392654995,-0.005189825617986245,-0.00548998344290701,-0.005935378925047682,-0.006312996833819083,-0.0066034721482586215,-0.004725065114882983,-0.004618557499588393,-0.004831572730177434,-0.005247920680874153,-0.005364110806649968,-0.006380774407188217,-0.005974108966972863,-0.005974108966972863,-0.006613154658739848,-0.006777757336922345,-0.006283949302375129,-0.004821890219696071,-0.005180143107504881,-0.005093000513173019,-0.005654586121089507,-0.0067002972530717094,-0.006293631812856355,-0.006961725036067294,-0.006651884700665166,-0.006051569050823498,-0.006225854239487221,-0.005722363694458641,-0.0060709340717860875,-0.005519030974350964,-0.0056061735686828255,-0.005567443526757645,-0.005857918841197047,-0.00601283900889818,-0.006274266791893765,-0.0062355367499684474,-0.006254901770931175,-0.007223152819062879,-0.007833150979385911,-0.008782037006555025,-0.009459812740247191,-0.009682510481317597,-0.009082194831475928,-0.008743306964629709,-0.007755690895535413,-0.007416803028689193,-0.008017118678530999,-0.008297911482489173,-0.007591088217352916,-0.007000455077992612,-0.007232835329544243,-0.007271565371469424,-0.0070972801828057,-0.007562040685908962,-0.007136010224731018,-0.006826169889328889,-0.0074361680496519205,-0.00799775365756827,-0.007687913322166142,-0.008017118678530999,-0.008026801189012224,-0.008443149139708943,-0.008627116838853893,-0.008317276503451763,-0.007736325874572686,-0.007726643364091459,-0.008510926713078078,-0.008549656755003394,-0.00810426127286286,-0.00787188102131123,-0.00812362629382545,-0.00859806930740994,-0.008627116838853893,-0.008481879181634124,-0.008075213741418907,-0.007784738426979367,-0.007387755497245239,-0.006671249721627756,-0.006225854239487221,-0.00599347398793559,-0.0064679170015200784,-0.0059063313936037285,-0.005548078505794918,-0.005896648883122364,-0.005877283862159775,-0.005577126037238872,-0.005509348463869738,-0.004502367373812715,-0.004144114486003905,-0.004512049884293942,-0.004328082185148992,-0.004879985282583979,-0.004870302772102752,-0.00442490728996208,-0.004560462436700485,-0.004453954821406034,-0.004763795156808163,-0.004957445366434614,-0.004696017583439029,-0.004618557499588393,-0.004124749465041315,-0.004269987122261084,-0.004754112646326937,-0.004812207709214845,-0.005257603191355379,-0.005741728715421232,-0.006206489218524494,-0.006458234491038852,-0.006758392315959617,-0.007629818259278234,-0.00799775365756827,-0.007920293573717773,-0.007639500769759598,-0.007387755497245239,-0.007019820098955202,-0.006903629973179387,-0.006671249721627756,-0.006826169889328889,-0.006922994994142114,-0.006758392315959617,-0.007039185119917793,-0.0074361680496519205,-0.007726643364091459,-0.007542675664946373,-0.007232835329544243,-0.007310295413394741,-0.006864899931254206,-0.007019820098955202,-0.0071650577561749714,-0.00797838863660568,-0.008278546461526445,-0.00902409976858802,-0.009198384957251744,-0.00962441541842969,-0.009672827970836233,-0.009140289894363836,-0.009576002866023007,-0.009246797509658289,-0.009266162530620878,-0.009779335586130684,-0.010205366047308767,-0.010224731068271356,-0.010757269144743753,-0.011376949815548149,-0.012180598185497493,-0.012035360528277724,-0.011328537263141604,-0.011657742619506323,-0.012354883374161216,-0.012074090570203042,-0.012035360528277724,-0.011919170402501908,-0.011841710318651411,-0.012596946136194212,-0.012751866303895206,-0.013778212414914958,-0.01409773526079845,-0.01409773526079845,-0.014339798022831307,-0.014475353169569712,-0.015075668819411518,-0.014620590826789482,-0.014543130742938984,-0.014620590826789482,-0.014310750491387353,-0.013923450072134727,-0.014485035680051076,-0.014562495763901574,-0.014756145973528026,-0.01451408321149503,-0.014126782792242405,-0.014078370239835722,-0.014029957687429179,-0.01449471819053244,-0.014911066141229022,-0.014988526225079657,-0.015269319029037831,-0.015530746812033418,-0.015772809574066276,-0.01534677911288833,-0.01539519166529501,-0.014959478693635703,-0.014610908316308256,-0.014039640197910543,-0.014814241036415933,-0.01467868588967739,-0.014475353169569712,-0.015133763882299426,-0.015366144133851057,-0.016295665140057446,-0.01653772790209044,-0.0165474104125718,-0.016624870496422302,-0.016053602378024587,-0.01651836288112785,-0.017157408572894696,-0.01760280405503537,-0.017147726062413472,-0.01651836288112785,-0.016421537776314624,-0.016489315349683894,-0.01594709476273,-0.015646936937809233,-0.016256935098132263,-0.01649899786016512,-0.016731378111716752,-0.016905663300380475,-0.016053602378024587,-0.014998208735560884,-0.01501757375652361,-0.01551138179107069,-0.015588841874921325,-0.0158696346788795,-0.015608206895883915,-0.015404874175776238,-0.015656619448290457,-0.014901383630747795,-0.015143446392780653,-0.014465670659088487,-0.013729799862508276,-0.013536149652881963,-0.013545832163363325,-0.013816942456840137,-0.01373948237298964,-0.012955199024002885,-0.013342499443255648,-0.013749164883471004,-0.013177896765073152,-0.01254853358378753,-0.012393613416086535,-0.01254853358378753,-0.013148849233629198,-0.013816942456840137,-0.01373948237298964,-0.014029957687429179,-0.014397893085719215,-0.013807259946358912,-0.014000910155985225,-0.01413646530272363
2019-04-18,0.0,0.000814124570868057,0.0026974006866110002,0.0031093673369297996,0.0003433055419322863,5.885237861697133e-05,-0.0023344776851397697,-0.003609612555174195,-0.00160863168219717,-0.0015007356547327689,-0.0014418832761157977,-0.00036292300147136965,0.00016674840608137231,0.0014909269249632272,0.0021383030897499117,0.0015007356547326297,0.0005590975968612277,0.0007650809220206273,0.0015399705738106569,0.0018538499264344574,0.002746444335458569,0.002511034820990684,0.0027366356056890274,0.002677783227072056,0.0011966650318783706,0.0009416380578715413,0.0015988229524276283,0.0023050514958312843,0.0031976459048552565,0.0037861696910249697,0.0031682197155467706,0.0026091221186855433,0.0023050514958312843,0.001824423737125972,0.0018734673859735409,0.0028837665522314557,0.002707209416380542,0.003138793526238285,0.004090240313879368,0.004178518881804825,0.004590485532123625,0.004570868072584541,0.004482589504659084,0.004580676802354083,0.0052182442373712255,0.0053261402648356266,0.0054830799411475966,0.005492888670917138,0.005610593428151081,0.005208435507601684,0.005277096615988197,0.004708190289357567,0.004973025993133799,0.005492888670917138,0.00518881804806274,0.005463462481608653,0.005414418832761084,0.0058656204021579105,0.006826875919568396,0.006728788621873397,0.007101520353114309,0.006934771947032797,0.007425208435507511,0.0073859735164296236,0.007327121137812652,0.007336929867582055,0.007611574301127967,0.0073467385973515955,0.007817557626287367,0.008307994114762081,0.0075036782736635655,0.007179990191270223,0.007435017165277053,0.0073859735164296236,0.007758705247670395,0.007837175085826311,0.00902403138793528,0.009396763119176052,0.009514467876409994,0.010034330554193194,0.009553702795488022,0.009328102010789537,0.009847964688572738,0.009445806768023481,0.009210397253555595,0.009798921039725308,0.009975478175576223,0.010358018636586535,0.010956351152525651,0.011132908288376566,0.011387935262383535,0.012025502697400678,0.012153016184404022,0.01209416380578719,0.011466405100539449,0.010554193231976395,0.011132908288376566,0.010848455125061251,0.01151544874938688,0.012447278077488879,0.012829818538499193,0.012270720941637964,0.012770966159882222,0.011839136831780221,0.010809220205983364,0.010956351152525651,0.00991662579695925,0.010191270230505164,0.010711132908288365,0.011338891613535965,0.010564001961745936,0.011074055909759595,0.011525257479156422,0.011554683668464906,0.011456596370769907,0.012064737616478704,0.012466895537027962,0.012702305051495848,0.012682687591956765,0.013712604217753763,0.014879843060323647,0.015370279548798362,0.016272682687591876,0.01648847474252082,0.016429622363903846,0.016233447768513987,0.016351152525747932,0.016802354095144616,0.017508582638548275,0.017204512015693875,0.014771947032859247,0.01758705247670419,0.017302599313388876,0.01634134379597839,0.017076998528690532,0.016204021579205502,0.016007846983815504,0.01650809220205976,0.016694458067680218,0.016360961255517333,0.01613536047081899,0.016017655713585047,0.015958803334968075,0.015340853359489877,0.01540951446787639,0.015340853359489877,0.016586562040215816,0.017636096125551757,0.017351642962236305,0.01748896517900933,0.01774399215301616,0.01924472780774893,0.01919568415890136,0.020264835703776386,0.020882785679254445,0.02039234919077973,0.02087297694948504,0.020980872976949443,0.02051005394801367,0.019391858754291356,0.019176066699362414,0.018666012751348618,0.018106915154487528,0.019058361942128472,0.019215301618440442,0.01873467385973513,0.018028445316331475,0.018136341343796016,0.017616478666012673,0.018303089749877387,0.018499264345267247,0.01804806277587056,0.018401177047572246,0.018116723884256933,0.017989210397253586,0.018175576262873902,0.01846002942618922,0.018254046101029958,0.018479646885728302,0.01837175085826376,0.01790093182932813,0.018185384992643445,0.01791074055909753,0.0179597842079451,0.01852869053457573,0.018106915154487528,0.017577243746934788,0.01752820009808722,0.017037763609612504,0.01722412947523296,0.017400686611083873,0.017145659637076906,0.01697891123099553,0.01753800882785676,0.017832270720941616,0.01774399215301616,0.018499264345267247,0.019234919077979386,0.01942128494359984,0.019735164296223642,0.019597842079450617,0.019754781755762587,0.020127513487003357,0.020617949975478212,0.02111819519372233,0.020411966650318813,0.02008827856792547,0.020156939676311846,0.019960765080921986,0.02049043648847473,0.020735654732712015,0.020843550760176556,0.021657675331044613,0.02169691025012264,0.021039725355566415,0.021167238842569897,0.02195193722412947,0.02163805787150567,0.020559097596861243,0.02105934281510536,0.021853849926434472,0.0217949975478175,0.02206964198136341,0.022501226091221155,0.022324668955370244,0.02205983325159387,0.0217851888180481,0.021716527709661586,0.022020598332515844,0.022167729279058274,0.022089259440902356,0.021844041196665068,0.02139283962726824,0.021569396763119156,0.022187346738597357,0.022138303089749786,0.022089259440902356,0.021608631682197184,0.021530161844041128,0.021451692005885214,0.02162824914173613,0.021343795978420812,0.021402648357037785,0.022128494359980384,0.021814615007356583,0.021765571358509015,0.022256007846983727,0.022354095144678728,0.02211868563021084,0.022550269740068584,0.022609122118685557,0.022030407062285387,0.022187346738597357,0.0218930848455125,0.021618440411966585,0.021304561059342784,0.02163805787150567,0.020941638057871415,0.020519862677783215,0.02087297694948504,0.020686611083864586,0.02111819519372233,0.020765080922020503,0.020637567435017157,0.020323688082393356,0.02049043648847473,0.021255517410495355,0.021128003923491873,0.020725846002942614,0.0205492888670917,0.021353604708190217,0.0218930848455125,0.02154977930358021,0.02074546346248156,0.02051005394801367,0.019607650809220157,0.01934281510544379,0.019127023050514984,0.018950465914664073,0.019156449239823473,0.019048553212358932,0.018205002452182387,0.01768513977439919,0.017155468366846446,0.0168219715546837,0.017155468366846446,0.017714565963707674,0.01738106915154479,0.017027954879843103,0.01805787150563996,0.017636096125551757,0.017596861206473732,0.01764590485532116,0.017999019127022987,0.018254046101029958,0.017979401667484046,0.017547817557626303,0.017665522314860245,0.018116723884256933,0.018509073075036787,0.018842569887199533,0.018518881804806188,0.018813143697891044,0.018754291319274075,0.018862187346738616,0.01966650318783713,0.019558607160372728,0.019166257969592874,0.01919568415890136,0.019362432564982872,0.019283962726826816,0.019058361942128472,0.018881804806277557,0.01949975478175576,0.019588033349681216,0.019558607160372728,0.019901912702305014,0.01949975478175576,0.019234919077979386,0.0193035801863659,0.018666012751348618,0.01790093182932813,0.017420304070622818,0.016733692986758246,0.016890632663070074,0.01697891123099553,0.0168219715546837,0.01706718979892099,0.01718489455615493,0.017361451692005845,0.017037763609612504,0.01664541441883279,0.015998038254046103,0.015115252574791533,0.014830799411476218,0.014193231976459076,0.013781265326140275,0.014085335948994535,0.01530161844041199,0.016714075527219163,0.016988719960765074,0.017047572339382044,0.01790093182932813,0.017949975478175558,0.018342324668955273,0.018813143697891044,0.018499264345267247,0.019333006375674384,0.018862187346738616,0.01856792545365376,0.01877390877881316,0.02017655713585093,0.020451201569396702,0.02059833251593913,0.020382540461010328,0.021363413437959757,0.02199117214320736,0.020990681706718986,0.020941638057871415,0.021726336439431126,0.021147621383030814,0.020882785679254445,0.020882785679254445,0.020617949975478212,0.021147621383030814,0.021530161844041128,0.021255517410495355,0.020411966650318813,0.020853359489945957,0.021049534085335955,0.0212751348700343,0.020980872976949443,0.021000490436488387,0.021284943599803843,0.022187346738597357,0.022010789602746442,0.021647866601275073,0.02211868563021084,0.022697400686611014,0.0223148602256007,0.02226581657675327,0.021245708680725815,0.02091221186856293,0.02070622854340367,0.020372731731240785,0.01986267778322699,0.019852869053457584,0.01949975478175576,0.0190975968612065,0.018822952427660588
