,09:30,09:31,09:32,09:33,09:34,09:35,09:36,09:37,09:38,09:39,09:40,09:41,09:42,09:43,09:44,09:45,09:46,09:47,09:48,09:49,09:50,09:51,09:52,09:53,09:54,09:55,09:56,09:57,09:58,09:59,10:00,10:01,10:02,10:03,10:04,10:05,10:06,10:07,10:08,10:09,10:10,10:11,10:12,10:13,10:14,10:15,10:16,10:17,10:18,10:19,10:20,10:21,10:22,10:23,10:24,10:25,10:26,10:27,10:28,10:29,10:30,10:31,10:32,10:33,10:34,10:35,10:36,10:37,10:38,10:39,10:40,10:41,10:42,10:43,10:44,10:45,10:46,10:47,10:48,10:49,10:50,10:51,10:52,10:53,10:54,10:55,10:56,10:57,10:58,10:59,11:00,11:01,11:02,11:03,11:04,11:05,11:06,11:07,11:08,11:09,11:10,11:11,11:12,11:13,11:14,11:15,11:16,11:17,11:18,11:19,11:20,11:21,11:22,11:23,11:24,11:25,11:26,11:27,11:28,11:29,11:30,11:31,11:32,11:33,11:34,11:35,11:36,11:37,11:38,11:39,11:40,11:41,11:42,11:43,11:44,11:45,11:46,11:47,11:48,11:49,11:50,11:51,11:52,11:53,11:54,11:55,11:56,11:57,11:58,11:59,12:00,12:01,12:02,12:03,12:04,12:05,12:06,12:07,12:08,12:09,12:10,12:11,12:12,12:13,12:14,12:15,12:16,12:17,12:18,12:19,12:20,12:21,12:22,12:23,12:24,12:25,12:26,12:27,12:28,12:29,12:30,12:31,12:32,12:33,12:34,12:35,12:36,12:37,12:38,12:39,12:40,12:41,12:42,12:43,12:44,12:45,12:46,12:47,12:48,12:49,12:50,12:51,12:52,12:53,12:54,12:55,12:56,12:57,12:58,12:59,13:00,13:01,13:02,13:03,13:04,13:05,13:06,13:07,13:08,13:09,13:10,13:11,13:12,13:13,13:14,13:15,13:16,13:17,13:18,13:19,13:20,13:21,13:22,13:23,13:24,13:25,13:26,13:27,13:28,13:29,13:30,13:31,13:32,13:33,13:34,13:35,13:36,13:37,13:38,13:39,13:40,13:41,13:42,13:43,13:44,13:45,13:46,13:47,13:48,13:49,13:50,13:51,13:52,13:53,13:54,13:55,13:56,13:57,13:58,13:59,14:00,14:01,14:02,14:03,14:04,14:05,14:06,14:07,14:08,14:09,14:10,14:11,14:12,14:13,14:14,14:15,14:16,14:17,14:18,14:19,14:20,14:21,14:22,14:23,14:24,14:25,14:26,14:27,14:28,14:29,14:30,14:31,14:32,14:33,14:34,14:35,14:36,14:37,14:38,14:39,14:40,14:41,14:42,14:43,14:44,14:45,14:46,14:47,14:48,14:49,14:50,14:51,14:52,14:53,14:54,14:55,14:56,14:57,14:58,14:59,15:00,15:01,15:02,15:03,15:04,15:05,15:06,15:07,15:08,15:09,15:10,15:11,15:12,15:13,15:14,15:15,15:16,15:17,15:18,15:19,15:20,15:21,15:22,15:23,15:24,15:25,15:26,15:27,15:28,15:29,15:30,15:31,15:32,15:33,15:34,15:35,15:36,15:37,15:38,15:39,15:40,15:41,15:42,15:43,15:44,15:45,15:46,15:47,15:48,15:49,15:50,15:51,15:52,15:53,15:54,15:55,15:56,15:57,15:58,15:59
2019-04-01,96.16,96.15,95.88,95.705,95.91,95.885,96.15,96.175,95.97,96.27,96.27,96.2,,,95.99,,95.73,95.81,95.79,,95.82,,96.14,96.215,96.23,96.07,96.03,95.94,,95.85,95.94,,,96.15,96.41,96.455,,96.41,96.39,,96.22,96.07,,96.26,,96.19,,96.1,,96.08,96.15,96.135,96.17,96.11,96.11,96.065,,,,96.13,96.15,,,,,96.11,,96.3,,,96.3,,96.26,96.23,96.245,,96.24,96.31,96.31,96.41,,96.44,,96.34,96.36,96.33,96.45,96.56,,,,,96.61,96.8,96.73,96.615,96.59,96.52,96.48,96.51,96.475,,96.61,96.55,,96.52,96.52,,96.61,,96.515,,,,96.35,96.34,,,,96.37,96.38,96.37,96.29,96.22,96.265,96.29,96.27,,96.15,,,,,,,,95.97,95.97,,,96.06,,96.1,,96.27,,96.19,,96.35,,96.36,96.23,,,,96.305,,,,,96.19,96.23,,,,,,,,96.24,96.28,96.35,,,96.49,96.455,,96.41,,96.47,,96.5,,,96.47,,,,96.43,96.5,96.52,96.53,96.5,96.49,96.52,,96.56,,,96.58,,,,,,,,,,96.7,96.73,,,96.73,96.74,,96.72,96.69,96.69,,,,,,,,96.73,96.71,96.7,96.72,96.7,96.68,,96.725,,96.68,96.7,,96.73,96.74,96.77,,96.82,,,96.92,,96.77,,,96.83,,,96.79,,96.79,96.82,,96.84,96.86,,96.89,96.96,96.97,,96.92,,,,96.91,96.96,96.95,96.935,96.84,96.85,96.86,96.88,,96.88,96.97,96.99,97.01,97.07,97.03,97.07,97.04,97.095,97.1,97.12,97.11,,,,96.99,,,96.84,,96.81,96.845,96.83,96.87,96.91,,,96.93,,97.02,,97.01,97.0,96.94,,96.885,96.86,96.88,96.87,96.82,96.81,,96.88,,,96.81,96.81,,96.87,,96.89,96.89,96.91,,,96.9,96.91,96.88,,,96.82,,96.83,96.81,96.7,96.72,96.76,96.72,96.72,96.82,96.89,96.88,96.84,96.92,96.92,96.905,96.95,96.96,96.785,96.81,96.835,96.855,96.8,,96.785,96.805,96.77,96.735,96.76,96.845,96.9,96.8,96.805,96.84,96.86,96.94,96.96,96.955,96.9,96.87,96.94,96.93,96.95,96.91,96.98,96.96,96.97,96.95,96.99,97.035,97.05,97.045
2019-04-02,97.24,97.225,,97.3,,97.09,97.12,,,97.415,97.52,97.23,97.01,97.23,97.17,,97.065,97.06,97.02,96.96,96.91,96.97,96.91,96.93,96.95,97.025,97.08,97.33,97.31,97.26,,,97.57,,,97.665,97.665,,97.645,,,,,,,97.53,,,,97.56,97.59,97.675,,,97.66,97.51,,97.335,,,97.42,,,97.39,97.5,97.51,,,,97.15,,97.11,97.18,,,97.025,97.025,,97.01,,96.91,,96.87,96.94,96.97,96.84,96.71,96.705,96.69,96.72,96.67,,96.43,96.51,,96.58,96.59,96.51,96.65,96.525,96.57,96.59,96.56,96.54,96.27,96.25,96.25,96.48,96.505,96.49,96.515,96.55,,96.63,96.685,96.685,,96.66,,,,96.72,96.62,96.62,96.71,,,96.61,96.48,,96.54,,96.65,,96.73,,96.635,96.69,96.73,96.625,,,96.83,96.83,96.87,,96.83,96.85,,96.915,,,96.87,,,96.87,96.92,96.91,96.9,96.89,96.815,,,,,96.73,96.67,96.64,96.655,,,96.65,96.7,,96.64,,,96.56,96.4,,96.49,96.44,,96.43,,,96.57,,,,96.51,,,,,96.52,,,,,96.45,96.415,,,96.51,,96.49,96.48,,,,,96.44,,96.41,,,,,,96.66,96.57,,,,,96.57,96.54,,,,,,,,96.59,,,,,96.49,96.46,96.425,,,,96.53,,,,,,96.47,96.48,,,96.395,96.31,,,96.24,,96.33,,96.315,96.45,,,96.35,96.33,96.38,,,96.45,,96.53,96.5,,,,96.45,,96.51,96.4,,96.35,96.35,,96.33,96.315,96.26,,96.23,96.16,96.22,,,,96.295,,,,,,,96.31,,96.33,96.26,96.27,96.33,96.33,96.335,96.34,96.34,96.33,96.35,96.305,96.245,96.245,96.21,,96.21,96.1,,96.035,96.06,,96.21,96.165,96.215,96.21,96.27,96.315,96.26,96.36,96.31,,96.25,96.2,96.21,96.24,96.23,96.24,96.3,96.305,96.24,96.24,96.29,96.3,96.275,96.24,,96.16,96.245,96.25,96.18,96.2,96.145,,96.205,96.19,,,96.24,,96.265,,96.37,96.375,,96.35,96.38,96.32,96.285,96.26,96.29,96.33,96.335,96.34,96.31,96.305,96.275,96.255,96.27,96.23,96.2,96.17,96.18,96.14
2019-04-03,96.37,96.315,,96.185,,95.98,96.28,96.34,,96.08,96.015,95.99,95.96,96.14,96.135,96.18,96.14,96.21,96.18,96.0,96.23,96.15,,,95.955,95.955,96.0,95.845,95.85,95.84,95.715,95.65,95.575,95.645,95.44,95.495,,95.46,95.61,95.69,95.775,95.87,95.855,,95.81,95.83,95.985,96.07,96.12,,96.135,96.055,96.03,96.045,96.05,96.08,96.05,95.87,,,95.78,95.55,95.52,95.51,,,95.62,95.55,95.58,95.635,95.645,95.94,,95.94,,95.865,96.05,96.01,95.98,,95.99,,96.13,96.205,96.17,96.29,,96.09,96.11,96.11,96.0,96.09,96.145,96.23,,96.27,,,,,,96.0,95.87,95.77,,95.805,,95.71,,95.73,95.56,,95.49,,95.48,95.485,95.425,95.29,95.47,95.405,95.43,95.43,95.46,,95.36,95.43,95.33,,95.26,95.28,,,95.23,95.155,95.205,95.195,,95.13,,95.2,,95.31,95.36,95.35,95.29,95.38,,95.435,95.47,95.345,95.41,95.41,95.46,95.43,95.47,95.49,95.48,95.52,,95.64,95.64,95.54,95.415,95.335,95.33,95.41,95.38,95.46,95.41,95.4,95.43,95.365,95.4,95.38,95.44,95.445,95.4,95.38,95.37,95.3,95.28,95.36,95.32,95.33,95.15,95.11,95.16,,95.1,95.135,95.18,95.185,95.21,95.1,95.04,94.945,94.865,,94.905,94.87,94.83,94.86,94.84,94.865,94.78,94.73,94.77,,94.73,94.64,,,94.7,,,94.73,,94.7,,94.68,,,94.68,,,94.61,,94.58,94.51,,94.56,94.56,94.6,94.6,94.6,,,94.57,94.57,94.59,94.575,,94.52,,,94.51,,,94.51,,94.44,,94.36,94.36,94.39,94.38,94.36,94.35,94.36,94.35,94.275,94.27,,94.255,94.26,94.25,,94.125,94.045,94.13,94.13,94.11,94.055,94.0,94.01,94.0,94.005,,93.92,,,93.91,,,,,93.83,,93.82,93.8,93.83,93.96,93.97,94.0,93.98,94.03,,,,94.23,94.17,94.2,,94.22,94.21,94.18,,,94.29,94.26,94.225,94.275,94.25,94.18,94.155,94.165,94.21,94.17,94.21,94.185,94.185,,,94.4,94.41,94.385,94.345,94.36,,94.35,94.3,94.29,94.365,94.35,94.365,94.385,94.35,94.34,94.32,94.27,94.22,94.24,94.16,94.15,94.195,94.2,94.16,94.15,94.23,94.25,94.2,94.12,94.26,94.15,94.11,94.22,94.28,,94.315,94.42,94.38,94.34,94.375,94.31,94.395,94.355,94.31,94.355,94.31,,,94.3,94.33,94.35,94.38,94.36,94.34,,94.325,,94.35,94.27,94.27,94.155,94.02,94.055,94.01,94.0,93.905,93.87
2019-04-04,,,93.75,93.89,94.11,94.315,94.27,,94.31,94.37,94.33,94.27,94.23,,94.16,,,93.78,93.73,93.6,93.665,93.78,93.82,93.99,93.95,,,93.635,93.635,93.65,93.6,93.58,93.58,93.62,93.61,93.56,93.57,93.575,93.54,93.515,93.46,93.46,93.54,93.57,93.49,,93.46,,,,93.53,93.55,93.62,93.635,93.625,93.59,93.445,,,,,,93.26,93.23,93.2,93.145,,93.09,93.005,,93.04,92.95,92.945,93.0,93.0,93.265,93.28,,93.26,93.27,,93.27,93.28,93.215,,93.15,,,93.085,93.09,93.06,93.0,93.115,93.05,93.14,93.17,93.2,93.305,93.23,93.275,93.215,93.285,93.41,93.41,93.41,93.37,93.27,93.225,93.21,93.25,93.1,93.055,93.015,,93.05,93.26,93.275,93.265,93.34,93.375,93.325,93.23,93.205,93.31,,93.31,93.34,93.53,,93.655,93.675,93.62,93.69,93.67,93.71,93.71,93.71,93.74,93.745,93.71,93.74,,93.655,93.71,93.7,93.705,93.74,93.665,93.725,93.74,93.75,93.775,93.71,93.69,93.72,93.74,93.675,93.715,,,93.615,93.565,93.53,,93.42,93.36,93.29,93.21,93.2,93.33,93.385,93.49,,93.63,93.58,93.49,93.48,93.525,93.53,,,93.57,,93.46,93.41,93.56,93.53,93.49,93.47,93.46,93.49,93.46,93.43,,93.57,,,93.49,,93.495,93.59,93.59,,93.67,93.65,93.72,93.68,93.66,,93.59,,,93.55,,93.41,93.51,,,,,93.495,,,,,,,93.47,93.56,93.57,93.62,93.58,,93.57,93.59,,,93.55,93.6,93.57,93.595,93.55,,,93.59,,93.69,93.69,93.64,,,,93.615,93.585,93.57,,,93.65,93.63,93.49,93.455,93.57,93.57,93.63,93.765,93.705,93.655,93.63,93.77,93.675,93.63,93.59,93.6,93.605,93.6,,93.63,93.655,93.64,93.69,93.77,93.69,93.67,93.66,93.675,93.66,93.68,93.69,93.65,93.68,93.66,,93.715,93.64,,93.55,,93.6,93.46,93.5,93.48,93.45,93.6,93.67,93.64,93.69,93.72,,,93.645,93.66,93.62,93.65,93.555,93.52,,93.48,93.43,93.4,,,,93.29,93.385,,93.41,93.405,93.41,,,93.47,93.43,,,,93.4,93.45,93.42,93.4,93.38,93.38,,,,93.43,,,,93.51,93.51,,,93.425,,,,93.46,93.435,93.4,93.39,93.45,93.4,93.43,93.455,93.5,93.47,93.51,93.52,93.57,93.55,93.505,93.535,93.545,,93.475,93.52,93.57,93.64,93.62,93.63,93.56,93.635,93.6,93.6,93.65,93.6,93.61,93.61,93.6,93.57
2019-04-05,,94.43,,94.76,,94.68,94.74,94.67,94.65,94.64,94.55,,94.69,94.65,94.67,,,95.07,,95.27,95.34,,95.37,95.27,95.35,95.18,95.25,95.37,95.39,95.505,95.6,,95.66,95.665,,95.95,96.0,96.1,96.19,96.21,96.25,96.23,96.3,,,96.36,96.32,96.36,96.35,96.49,,96.535,96.57,96.61,96.55,96.575,96.605,96.6,96.475,96.44,96.445,96.38,96.69,96.585,96.595,96.58,96.58,96.665,96.62,96.63,96.61,,96.63,96.64,96.69,96.71,96.765,96.79,96.855,96.85,96.83,96.97,96.95,97.05,97.03,97.065,97.11,97.09,96.965,97.15,96.975,97.085,97.12,97.09,,96.94,97.06,,97.15,97.165,97.15,97.23,97.27,97.34,97.44,97.42,97.365,,97.44,97.39,97.51,97.63,97.56,97.58,97.53,97.48,97.34,97.135,97.05,97.08,97.04,97.09,96.97,96.92,96.81,96.82,96.96,97.0,96.95,96.95,96.975,96.99,,,,,,,,97.08,,,97.09,,,97.25,97.215,,,,,97.17,,,97.07,97.07,97.06,,97.11,97.11,,97.15,97.17,97.18,97.15,,,,97.185,97.18,97.21,97.26,97.27,97.18,,97.285,97.33,,97.33,97.37,,,,,,,,97.27,97.235,97.14,97.19,97.21,,97.21,97.27,,97.42,,97.42,97.42,,,97.57,,97.62,97.61,97.69,97.76,97.75,97.76,97.79,,97.85,97.88,97.92,97.92,97.93,97.86,98.02,98.05,98.08,98.05,98.0,98.02,98.02,98.04,97.97,98.06,98.08,98.11,98.07,98.14,98.245,98.26,98.23,98.17,,98.19,98.24,98.21,98.18,98.2,98.06,,,,,,98.22,98.34,98.32,98.29,98.25,98.245,98.245,98.12,,98.16,98.2,98.205,98.24,98.28,98.21,98.225,98.26,98.23,98.265,98.3,,98.34,,98.43,98.4,98.32,98.44,98.5,98.51,98.49,98.28,98.26,98.24,98.225,98.22,98.31,,98.295,98.42,,98.5,,98.36,98.31,,,98.3,98.23,98.23,98.24,98.385,98.4,,98.39,98.34,98.28,98.33,98.35,98.28,98.25,98.25,98.31,98.36,,98.4,98.41,98.37,,98.26,98.22,,98.23,98.19,98.2,,98.19,98.155,98.17,98.17,98.25,98.32,98.32,98.38,98.37,,,98.48,98.57,98.62,98.39,,98.365,98.39,98.355,98.41,98.44,98.46,98.4,,98.41,98.45,98.41,98.43,98.45,98.48,,98.4,98.4,98.41,98.44,98.47,98.445,98.42,98.54,98.51,98.55,98.63,98.53,98.46,98.47,98.45,98.44,98.51,98.535,98.515,98.475,98.425,98.43,98.47,98.51,98.53,98.46,98.475,98.42,98.43,98.44,98.47,98.52,98.58,98.63,98.66,98.645
2019-04-08,99.075,99.405,99.75,99.825,99.95,99.85,99.85,99.765,99.71,99.5,99.59,100.04,100.12,100.44,100.13,100.375,100.67,100.815,100.91,100.85,100.82,100.83,100.99,100.83,,100.61,100.21,100.31,100.08,100.17,100.05,100.09,100.15,100.15,100.045,99.97,100.1,100.035,100.015,99.97,100.06,100.0,,100.01,,100.15,100.16,100.2,100.41,100.53,100.53,100.385,,,100.4,100.38,100.29,100.19,100.35,100.32,100.27,100.14,100.075,100.08,100.135,100.06,100.17,100.29,100.27,100.325,100.34,100.35,100.34,100.26,100.21,,100.09,100.11,,100.075,100.105,100.24,,,,100.29,100.17,100.17,100.16,100.15,100.18,100.15,100.08,,100.01,100.0,99.965,99.985,,,99.97,99.93,99.77,99.77,99.69,99.62,,99.41,,99.29,99.13,99.16,99.265,,99.17,99.17,99.17,,99.24,,99.44,,,99.5,,,,99.375,99.48,99.495,99.37,99.325,99.37,,99.405,99.41,,99.48,99.445,99.545,99.54,,99.39,99.48,,,99.415,,,,99.36,,,,,,99.35,99.27,99.25,99.19,99.19,,,,99.1,,99.23,,99.39,99.39,99.41,,,99.37,99.39,99.395,99.44,99.44,,99.415,99.35,99.35,99.2,99.24,99.105,99.165,99.24,99.22,,,99.26,99.47,99.46,99.44,99.48,99.54,99.57,99.53,,99.405,99.47,99.5,99.51,,99.51,,99.61,99.63,,99.59,,,99.425,99.47,99.44,99.41,99.4,99.425,99.45,99.46,99.48,,,99.46,,99.36,,,,99.39,,,,99.43,,,,,99.4,99.34,99.32,99.3,99.41,99.36,99.37,,99.29,,99.43,99.415,99.43,99.46,99.41,99.475,99.435,99.44,99.48,99.505,99.51,99.4,99.5,99.52,99.41,,99.5,,99.455,99.44,99.495,,,99.475,99.355,99.395,99.465,99.475,99.49,99.29,99.35,99.35,99.37,,,,,,,,,99.34,,99.31,99.275,99.26,,,99.3,99.31,99.33,99.29,99.26,99.275,99.27,99.32,99.38,99.35,,,,,,99.255,,,99.29,99.25,99.305,99.26,,99.275,99.31,,99.37,99.415,,,99.42,99.455,99.44,,99.4,,99.28,99.31,99.32,,,,99.24,,,,,99.395,,99.28,99.32,,99.35,,99.49,99.47,99.47,99.47,99.41,,99.405,,99.405,99.36,99.35,,,,99.34,99.35,99.44,99.46,99.505,,99.38,99.405,99.39,,99.36,99.35,,99.39,99.36,99.41,99.38,99.41,99.39,,99.39,99.35,99.32,99.3,99.255,99.33
2019-04-09,,98.61,,,97.99,97.875,97.67,97.67,,97.615,97.93,97.86,,97.88,98.06,97.92,,98.08,98.11,,,,,98.23,,98.28,98.28,98.23,98.39,98.13,98.13,98.16,,97.91,97.685,97.745,97.67,,97.685,,97.655,97.755,97.81,97.76,97.73,97.77,,97.63,,97.595,97.555,97.61,,97.63,97.68,97.88,98.04,98.01,98.01,98.05,97.97,97.89,97.78,,,,,,98.075,97.87,,97.78,,,97.62,97.685,,97.68,97.65,,,97.53,,,,,97.59,97.55,97.57,,97.75,,,97.71,97.78,,,,97.79,,97.61,97.59,97.53,97.525,97.59,97.65,97.75,97.79,97.71,97.7,97.61,97.7,97.7,97.7,97.65,97.625,,97.72,97.76,97.74,97.71,97.85,98.1,,98.0,97.95,,98.07,98.02,98.12,,98.115,98.145,,98.24,98.25,98.32,98.34,98.33,,98.39,98.465,98.6,98.59,98.61,98.69,,98.655,98.665,98.65,98.7,98.795,98.79,98.815,98.85,98.875,,,98.93,99.02,,99.01,99.02,,99.16,99.17,99.19,,99.24,99.235,99.25,99.25,99.27,99.21,99.29,,99.33,99.33,,,99.28,,99.35,99.36,99.39,99.4,99.325,,,99.37,99.42,,99.42,99.55,99.515,99.5,99.515,99.455,99.39,99.38,99.32,99.26,99.2,99.14,99.09,99.12,99.04,,,99.01,,98.99,,99.005,98.97,98.935,98.96,98.95,99.0,,99.02,99.065,99.03,99.01,98.99,98.985,98.95,98.995,99.0,98.93,98.91,,98.91,98.87,,,98.88,98.82,98.84,,98.78,,98.72,98.65,98.65,98.69,98.66,98.69,98.71,98.825,98.88,98.93,98.93,98.91,,,,,,,98.87,98.89,,98.86,98.84,98.85,,98.89,,,98.92,98.845,98.835,,98.8,,98.79,,,98.7,,98.61,98.65,98.57,,98.73,,98.72,98.72,98.72,98.72,98.72,98.715,,98.7,98.67,98.7,98.77,98.8,,98.745,98.785,98.74,98.715,98.7,98.685,98.675,98.67,98.71,98.74,98.68,98.68,98.64,98.59,98.61,98.535,98.5,98.46,98.42,98.465,98.535,98.55,98.485,98.44,98.55,,98.495,98.5,98.425,98.385,98.34,98.5,98.495,98.5,98.54,98.55,98.485,98.475,98.45,98.495,98.5,98.56,98.53,98.545,98.535,98.54,98.54,98.5,98.45,98.435,98.305,98.31,98.36,98.34,,98.33,98.27,98.25,98.32,98.42,98.34,98.46,98.46,98.49,98.5,98.525,98.545,98.54,98.5,98.56,98.61,98.61,98.64,98.575,98.6,98.57,,98.65,98.7,98.67,98.66,98.67,98.665,98.635,98.65,98.53,98.52,98.5,98.47,98.57
2019-04-10,,,99.03,99.535,99.74,,,,,,99.47,,,99.67,99.68,99.63,99.73,99.78,99.76,99.755,99.75,99.68,99.535,99.55,99.59,99.47,99.475,99.45,99.49,99.34,99.43,99.38,99.425,99.4,99.25,99.28,99.305,99.27,99.16,99.15,99.19,99.165,99.24,99.31,99.19,99.11,99.18,,99.03,99.11,99.14,99.175,,,98.965,98.965,98.915,,98.89,,,99.09,99.03,98.93,,98.98,99.0,,98.83,98.805,98.815,98.93,99.1,99.05,,98.84,98.79,98.81,98.865,98.77,98.84,98.78,98.77,,98.86,98.79,98.94,98.83,,98.87,,98.865,98.88,99.005,99.0,98.94,98.97,99.02,99.01,98.99,98.93,98.92,,98.88,98.825,98.915,98.94,98.83,98.85,,98.755,98.81,98.85,98.82,98.87,98.96,98.905,98.835,98.83,98.86,98.905,98.955,98.93,98.955,99.05,98.975,98.97,,98.86,98.79,98.84,98.82,98.83,98.85,,98.87,98.91,98.94,,98.92,98.86,98.84,98.835,98.9,98.95,99.01,99.06,99.04,,99.02,99.13,99.19,99.17,99.16,99.17,99.225,99.25,99.33,99.42,,,,99.47,99.42,99.335,99.22,99.28,,99.41,,99.55,99.58,99.55,99.58,99.53,99.54,,99.47,99.42,99.4,99.305,99.3,,99.32,99.31,,99.32,,,99.41,99.39,99.4,99.385,99.37,99.34,99.33,99.33,99.26,99.28,99.25,99.25,99.25,99.27,99.32,,99.25,,99.25,99.18,,99.185,99.18,99.125,99.14,99.12,99.175,,99.12,99.11,99.115,99.2,,99.15,99.135,99.2,99.22,99.145,99.08,99.11,99.15,99.165,99.13,99.1,,99.14,,99.11,99.055,98.93,,,,,98.94,98.96,98.98,,,,,,,,,98.97,98.935,98.935,,,98.94,98.955,98.91,,98.87,98.86,98.82,98.835,98.835,98.835,98.79,98.835,,98.86,,98.77,98.79,,,98.78,,98.725,,,98.625,98.61,98.65,98.605,98.625,98.65,98.585,98.525,,98.555,,98.5,98.53,98.49,98.485,,98.515,,98.51,98.5,98.415,98.485,,98.56,98.62,98.6,98.665,,98.715,,,98.7,,,98.73,98.78,98.74,98.74,,98.7,98.69,,98.69,,,98.725,98.71,98.71,98.775,98.93,98.9,99.115,99.0,98.985,98.96,98.955,98.98,98.97,98.85,,98.85,98.85,98.835,,98.78,,98.72,,98.63,98.695,98.69,98.69,98.7,,98.8,98.815,98.83,98.85,,98.83,98.87,,98.825,98.765,98.775,98.73,98.75,98.73,98.73,98.73,98.65,98.62,98.61,98.615,98.595,98.565,98.59,98.59,98.58,98.49,98.475,98.49,98.425,98.48,98.58,98.6,98.655
2019-04-11,98.64,,,,97.9,98.07,98.09,98.04,,98.24,,,97.94,,98.21,98.3,98.59,98.93,98.915,,98.91,,99.05,99.05,98.98,98.91,98.9,,99.0,99.07,99.16,,,,99.34,99.33,99.305,99.175,,99.15,99.14,99.17,,99.25,99.26,99.43,99.41,,99.525,99.52,,99.72,99.64,99.65,99.67,99.59,99.66,99.45,,,,99.41,99.38,99.45,99.47,,99.37,,,99.54,,99.58,99.45,99.44,99.41,99.44,99.51,,99.36,99.23,99.29,99.305,,99.26,99.22,,99.02,99.035,,98.96,98.91,98.905,,98.615,98.695,98.59,98.595,98.735,98.81,,98.86,98.77,98.86,98.985,99.06,99.12,99.12,,,,98.76,98.83,98.68,,98.58,98.6,98.635,98.67,98.61,98.62,98.545,98.5,98.575,98.54,,98.555,98.495,,98.45,98.44,98.2,97.95,98.11,98.07,98.135,98.14,,,98.23,,,98.15,98.05,97.97,97.97,,98.135,98.21,98.08,,97.965,,,98.0,,98.01,98.06,98.155,98.13,,98.05,98.07,98.08,98.1,98.17,,98.105,98.06,,98.09,,98.02,97.94,,98.055,98.09,97.98,97.84,97.81,97.7,97.78,97.76,,97.81,97.75,97.68,,97.855,,97.845,97.875,97.82,,97.83,,,,,98.11,98.07,,98.18,98.32,98.27,98.31,98.405,,,,,98.42,98.475,,98.5,,98.46,98.5,,,98.505,98.5,,98.46,98.43,,,,98.46,98.49,,98.54,,98.62,98.75,98.89,98.83,,98.6,98.61,98.73,98.81,,98.65,,98.78,98.81,98.71,98.64,,,,,98.545,98.545,,98.585,98.64,,98.81,98.85,98.89,98.91,,,,98.88,,98.875,98.89,98.87,,,,98.845,,,,98.865,,,,,,98.98,,,99.01,,99.025,,,98.905,98.82,98.8,,,,,98.87,,,,98.91,98.87,98.87,,,,,,98.73,,,,,,98.825,,98.83,98.83,98.855,,,98.905,,98.77,98.705,,,,98.69,,98.725,98.73,,98.91,,,,98.85,,98.83,,98.82,,,98.88,98.935,98.91,,,,,,,98.81,98.78,,,,98.77,,,,,,98.8,98.78,98.79,98.78,,,98.77,98.72,98.71,98.72,98.73,98.69,98.69,98.75,98.825,98.82,98.85,98.87,98.9,98.93,98.97,98.89,98.94,98.94
2019-04-12,102.125,102.965,102.355,103.03,103.13,103.365,103.18,103.26,103.095,,,103.7,103.76,103.84,103.77,103.88,103.74,103.8,103.74,103.535,103.53,103.575,,103.71,103.745,103.745,103.81,103.58,103.42,103.45,103.21,103.15,102.9,102.86,102.9,102.92,102.74,102.71,102.67,102.705,102.97,,102.965,102.94,102.9,102.88,102.88,,102.73,102.76,102.76,102.88,102.905,103.18,103.36,103.35,103.33,103.415,,103.38,103.175,103.245,103.33,103.26,103.21,103.02,102.94,103.01,102.96,,102.73,102.7,102.72,102.74,102.66,102.74,102.85,102.77,102.685,102.75,102.87,102.83,,102.91,,103.03,102.9,102.97,,102.995,,103.015,102.9,103.06,103.01,,102.92,102.785,102.8,102.9,,,,,102.89,,,102.85,102.86,,102.8,102.745,102.88,102.9,102.95,102.83,,102.95,102.95,102.92,102.9,102.88,102.87,102.9,,,,102.92,,103.0,102.925,,,102.92,102.96,,,102.95,,102.865,,103.08,103.1,103.3,103.3,103.24,103.36,,,103.39,103.35,,103.39,103.335,103.29,103.375,103.29,103.29,103.35,103.42,103.4,103.33,103.32,103.32,,103.3,103.34,103.39,103.37,103.465,,103.435,103.4,103.27,103.22,,103.29,103.25,103.275,103.34,,103.44,103.455,,,,103.34,103.39,103.45,103.45,103.51,103.7,103.77,103.77,103.83,103.95,103.94,103.94,103.91,,104.08,103.99,104.09,104.025,104.19,104.22,104.315,104.33,104.46,,104.625,104.66,104.76,104.725,104.77,,104.695,104.74,104.6,104.54,104.74,104.76,104.645,104.68,104.725,104.64,104.7,104.685,104.745,104.77,104.765,104.745,104.77,104.745,104.81,104.845,104.83,104.95,104.98,105.01,104.98,105.065,105.085,105.065,104.99,105.05,105.15,105.24,105.235,105.34,105.445,105.44,105.49,105.5,105.505,105.6,105.39,105.2,105.17,105.18,105.3,105.405,105.31,105.48,,105.43,105.47,105.46,105.455,105.505,105.575,105.55,105.64,105.67,105.72,105.76,105.775,105.675,105.705,105.7,105.76,105.735,105.77,105.735,105.75,105.82,105.95,106.015,106.08,105.995,105.92,105.75,105.64,105.73,105.68,105.655,105.58,105.455,105.49,105.55,105.71,105.98,,105.77,105.74,105.82,105.845,105.67,105.68,105.55,105.54,105.51,105.37,105.295,105.23,105.11,105.145,105.2,105.125,105.2,105.115,105.23,105.26,105.03,105.13,105.165,105.175,105.175,105.16,105.33,105.29,105.43,105.6,,105.75,105.79,105.835,105.79,105.985,105.92,106.01,106.01,106.03,106.225,106.29,,106.295,,106.24,106.09,106.07,105.86,105.65,105.91,105.61,,105.61,105.535,105.57,105.715,105.78,105.6,105.54,105.595,105.67,105.63,,105.52,105.52,105.5,105.535,105.475,105.495,105.46,105.45,105.4,105.41,105.38,105.365,105.33,105.31,105.31,105.3,105.25,105.22,105.3,105.38,105.415,105.39,105.34
2019-04-15,,,104.0,104.04,103.91,103.49,103.38,103.37,103.48,103.67,,103.52,,102.9,102.92,102.75,102.85,102.73,102.855,102.86,102.96,102.95,102.92,102.95,103.05,103.11,103.015,103.09,103.56,103.6,103.415,103.43,103.695,103.69,103.67,103.61,103.7,103.56,103.8,103.67,103.54,,103.49,103.48,,103.285,103.55,103.58,103.435,103.34,103.35,103.38,103.335,103.45,103.41,103.29,103.33,103.29,103.19,103.14,102.975,102.84,102.63,102.72,102.85,102.67,102.705,102.83,102.69,102.645,102.63,102.555,102.64,102.49,,,102.49,102.46,102.42,102.43,102.605,102.56,102.57,102.47,102.58,102.65,102.62,102.57,102.55,102.575,102.685,102.535,102.39,102.305,,102.305,102.245,102.225,102.33,102.34,,,102.6,102.45,102.395,102.505,102.48,102.31,102.165,102.045,102.15,102.14,102.055,,102.12,101.985,,102.04,101.95,102.12,,,,102.27,102.275,,,102.32,102.37,,102.385,102.44,,102.455,102.425,102.4,,102.53,102.51,102.3,102.28,102.325,102.255,102.335,102.34,102.21,102.35,102.37,102.31,102.29,102.245,,102.14,102.09,102.15,102.22,102.35,102.25,102.27,102.18,,102.225,102.23,102.15,102.185,102.185,102.19,102.24,102.165,102.105,102.2,,,,102.15,102.15,102.115,102.115,102.1,,102.105,,102.05,,,,,,102.095,,102.165,102.13,102.195,,,102.045,102.14,,102.12,102.15,102.19,102.13,102.13,102.11,,,102.18,,102.19,,102.2,,102.25,102.31,,102.25,102.3,102.27,102.25,,102.15,,,102.12,102.08,,,102.07,102.015,102.09,102.085,102.155,102.165,,,102.29,102.25,102.27,,102.35,,102.41,102.375,102.345,102.36,102.32,102.29,102.37,102.41,102.45,102.37,102.38,102.46,,102.4,102.41,102.46,,,,102.43,,102.45,102.49,,,102.415,102.365,,102.36,102.46,102.5,,102.49,,,102.44,102.45,,102.455,102.45,102.42,,102.46,102.495,,102.485,102.49,,102.48,102.45,102.46,102.39,,102.305,,,,,102.22,102.23,102.08,102.08,,,,,101.885,101.82,101.84,101.68,101.65,101.53,101.5,101.49,101.49,,,101.55,101.51,101.44,101.58,101.615,101.7,101.7,101.62,,101.72,,101.71,,101.71,101.71,101.76,101.71,,101.81,,101.72,101.68,101.76,,,101.66,,,101.74,101.66,101.675,,101.71,,101.68,,101.65,101.68,101.69,,101.7,101.65,101.68,101.73,101.675,101.68,101.765,101.75,101.735,101.745,101.75,101.795,101.79,101.795,101.83,101.73,101.72,101.64,101.69,101.76,101.805,101.905,101.935,101.9,101.92,101.94,101.94,101.96,101.95,101.905,101.98,101.885
2019-04-16,,102.0,101.93,101.86,101.93,101.87,101.67,101.56,101.465,101.39,101.57,101.28,101.25,101.355,101.42,101.42,101.64,101.71,,101.445,101.27,,,101.175,101.27,101.31,101.325,,101.31,101.29,101.27,101.355,101.4,101.485,101.5,101.46,101.44,101.35,101.45,101.44,101.465,101.445,101.78,101.815,,101.66,101.55,101.585,101.49,101.59,101.595,101.675,101.685,,101.7,101.68,101.69,101.76,101.91,102.0,102.1,102.04,101.95,101.93,101.91,101.925,101.97,102.02,102.0,102.005,101.975,102.03,101.98,102.04,102.0,101.91,101.89,101.905,101.88,,101.875,101.8,,101.88,101.95,101.865,101.885,,101.83,101.59,101.62,101.63,101.56,,101.51,,101.41,,,101.37,101.46,101.63,101.65,,,101.84,,101.64,101.665,101.57,101.555,101.515,101.57,101.6,101.565,101.47,101.55,101.555,101.56,101.56,,101.59,,101.58,101.59,101.58,101.625,101.59,101.57,101.52,,101.59,,,,,101.68,101.65,101.71,,101.845,101.865,101.91,101.89,101.96,101.925,101.985,102.06,102.05,,102.06,102.03,102.04,102.0,102.115,102.1,102.165,102.17,102.135,102.1,102.095,102.1,102.11,,,102.08,102.15,102.175,102.14,102.18,,102.11,102.13,102.095,101.92,,102.01,101.98,,102.02,102.03,,102.1,102.135,102.155,102.18,102.19,102.16,,102.05,102.04,102.02,102.04,102.06,,102.1,102.105,102.15,,,102.1,102.07,102.08,102.06,101.99,,,,102.0,101.97,,,102.02,101.99,102.04,,102.08,,,,102.05,102.04,102.03,102.02,101.97,,,,102.005,102.03,102.07,102.085,,102.005,102.035,102.01,102.0,101.96,101.96,,,,,101.99,101.95,101.93,,101.87,101.9,101.94,101.96,101.965,,101.9,,101.945,101.86,101.95,101.98,102.05,,102.06,102.05,102.045,102.015,101.92,101.94,101.935,101.91,101.92,101.92,101.91,101.925,101.93,101.875,101.92,101.975,102.045,102.005,102.03,102.07,,102.145,102.15,102.16,102.15,102.24,102.29,102.35,102.4,102.475,102.485,102.525,,,102.6,102.66,102.68,,102.735,102.8,102.67,,,,,102.64,,,,102.73,,,,102.585,,,,102.52,102.52,,102.56,,,,102.55,102.55,102.565,,,,,102.535,102.49,102.455,102.45,102.44,102.43,102.455,102.51,102.51,102.49,102.5,102.46,102.49,102.525,102.485,102.45,102.465,102.39,102.34,102.385,102.35,102.4,102.43,102.43,102.43,102.44,102.435,102.49,102.505,102.53,102.66,102.58,102.495,102.465,102.47,102.5,102.39,102.34,102.33,102.37,102.32,102.36,102.295,102.29,102.37,102.28,102.35,102.325,102.29,102.3,102.245,102.34,102.37,102.34,102.37,102.34,102.37,102.345
2019-04-17,103.015,103.375,103.52,103.71,103.62,103.63,,,103.48,103.48,,,103.705,103.69,103.89,,,,,,,103.84,,,,,103.89,,103.89,,104.09,,104.0,104.11,104.25,104.42,104.21,104.27,,103.93,103.87,,103.65,103.68,103.78,103.68,,103.68,103.62,103.47,103.5,103.57,103.635,103.74,103.75,,103.81,103.79,103.71,103.81,103.84,103.9,,103.83,103.87,103.955,104.01,103.795,103.81,103.89,103.86,103.8,103.67,103.66,103.59,103.555,103.565,,103.57,103.61,103.5,103.5,103.46,103.485,103.47,103.49,103.45,103.43,,103.29,103.14,,,103.18,103.21,103.255,103.39,103.49,103.5,103.55,103.49,103.49,103.53,103.465,103.305,103.42,103.445,103.415,103.355,103.315,103.375,103.375,103.355,103.43,103.5,103.43,103.42,103.43,103.365,,103.37,103.25,103.19,103.2,103.115,103.2,103.25,103.31,103.23,103.19,,,103.145,103.23,103.2,103.19,103.065,103.1,103.11,103.095,103.22,103.0,,103.05,103.03,103.085,102.965,102.955,102.835,102.9,102.83,102.9,102.77,102.7,102.715,102.615,102.595,102.77,102.81,102.79,102.715,,,102.62,102.6,,102.585,102.61,102.71,102.73,102.765,102.715,102.6,102.64,102.585,102.58,102.67,102.645,102.675,102.65,102.72,102.72,102.735,102.71,102.68,,102.64,,102.59,,102.37,102.325,102.25,102.355,102.37,,,,102.42,102.5,102.545,102.56,102.54,,,102.57,102.555,102.55,102.45,,,102.44,102.39,,102.44,,102.5,,102.41,,102.46,,102.42,102.375,102.385,,,102.515,,102.62,,102.595,102.615,102.7,102.67,102.635,,102.67,,102.84,,102.83,102.8,102.75,,102.82,102.79,102.81,,102.8,102.8,,102.85,102.8,102.78,102.74,102.685,102.63,,102.61,102.51,,102.445,,,102.54,102.56,102.59,102.56,102.57,,102.57,,102.47,,,102.51,,102.56,,102.45,102.385,,102.345,,102.29,102.35,,102.32,102.335,102.275,102.22,102.22,102.2,102.1,,101.99,102.11,102.11,,102.05,,102.06,102.08,102.02,101.98,,101.87,,101.79,101.78,101.74,101.82,101.765,101.765,,,101.8,101.775,101.77,101.78,101.8,,,,101.745,101.74,,101.69,101.645,101.66,101.7,,101.74,,101.76,101.72,,101.775,101.665,101.575,101.56,101.56,101.56,101.63,101.59,101.495,101.45,101.52,,101.58,101.575,101.61,,101.595,101.6,,101.55,,,101.73,101.67,101.66,101.625,101.65,101.7,101.67,101.74,,101.75,,101.92,101.85,101.84,101.87,101.87,101.94,101.845,101.89,101.98,102.01,102.0,,101.855,101.84,101.84,101.78,101.805,101.83,101.795
2019-04-18,,,,,,102.07,101.86,101.59,,101.94,101.73,101.93,101.89,102.12,102.17,102.065,102.1,102.05,102.06,102.17,102.285,102.17,102.185,102.22,,102.07,102.08,102.18,102.185,102.33,102.32,102.21,,102.125,,102.24,102.24,102.34,,102.35,102.41,102.41,,102.41,102.475,102.5,102.53,,,,,102.45,,102.495,,102.51,102.49,102.54,,102.62,102.625,,102.695,102.74,102.67,102.68,,102.69,,,102.74,,,102.68,102.745,,,,102.91,102.97,102.94,102.93,,,102.88,102.95,102.975,,103.055,103.06,,103.18,103.19,,103.08,,,,103.15,103.195,103.265,103.17,103.24,103.2,103.055,103.075,103.0,102.98,103.06,103.08,,,,,,,103.23,,103.2,,103.44,103.505,,103.645,103.6,,,,103.715,,,103.74,103.74,,103.74,,,103.66,103.62,103.57,103.57,103.66,,103.51,,,,,,,103.725,103.9,,,,104.08,,,,,,,,103.93,103.88,,103.78,,103.74,,,103.8,,,,103.835,,,103.87,103.85,,103.81,,103.79,103.84,,,103.74,103.7,103.685,,103.69,103.67,,,,103.83,103.91,103.9,,,,,104.07,,,,,,104.045,,104.08,,,,,104.24,104.17,,,,104.18,,,,104.2,,104.19,104.17,,104.2,,,,,,104.24,,,,104.16,,,104.22,,,,104.24,104.21,104.25,,,,,,104.1,,,104.065,,104.05,104.08,,104.035,104.02,,,,,104.045,,104.17,104.19,,,,103.915,,103.89,,,103.87,,,,,103.75,,,103.81,103.74,,,103.755,,103.76,103.75,,103.82,,,103.85,,103.87,,103.88,103.96,,103.91,,103.92,103.89,,,103.93,,104.01,,103.915,103.915,103.85,103.78,,103.63,103.65,,,,103.71,,,103.67,,,103.47,,,103.35,,103.6,103.65,103.695,,103.78,,103.86,103.83,103.85,103.855,103.84,,103.98,104.04,104.01,104.025,104.1,,,104.04,104.16,104.09,104.09,104.095,104.035,104.09,104.16,104.115,104.075,104.03,104.11,104.1,,104.085,104.12,104.16,104.18,104.2,104.19,104.26,,104.22,104.15,104.09,104.08,104.01,103.97,103.98,103.94,103.92,103.89
2019-04-22,105.27,105.68,105.42,105.42,,105.69,105.72,105.795,105.74,105.84,105.73,105.63,,105.49,105.17,,105.33,,105.22,105.11,104.92,,104.69,104.795,104.88,104.88,104.9,104.92,,104.83,104.83,104.93,,104.925,105.005,105.03,105.065,105.275,105.21,105.21,105.24,105.37,105.2,105.06,105.17,105.075,105.1,105.125,105.15,105.17,105.275,105.305,105.36,105.35,105.4,105.31,105.39,105.655,105.71,105.805,105.83,105.755,105.78,105.72,105.485,105.34,105.45,105.415,105.49,105.38,105.24,105.23,105.335,,,,,,105.52,,105.67,,105.74,105.83,,105.785,,105.85,105.715,105.77,,,105.52,105.485,,105.34,105.32,,,105.56,105.6,105.68,105.78,105.73,,105.7,,105.62,,105.61,105.71,,105.62,,105.72,105.73,,,105.68,105.735,105.81,105.875,105.82,105.75,105.78,105.88,105.875,105.9,105.9,105.85,106.075,106.105,106.025,106.07,106.1,106.06,106.04,106.1,,,106.06,106.065,106.115,106.01,106.09,106.06,106.11,106.105,106.08,106.24,106.355,106.4,106.39,106.39,106.42,106.485,106.425,106.47,106.59,106.64,106.69,106.745,106.64,106.72,106.71,106.77,,106.83,106.85,106.83,106.84,106.75,106.65,,106.73,,106.7,106.65,106.78,106.79,106.81,106.87,106.86,106.91,106.91,106.905,,,106.92,107.02,,,,,107.04,107.03,107.01,107.05,,107.06,,107.115,,107.04,,107.0,106.83,,,106.93,106.91,106.96,106.99,107.07,107.15,107.09,107.14,107.12,107.09,107.24,,107.07,,,106.985,107.02,107.11,107.13,107.145,107.04,,,,107.03,107.01,107.02,107.07,107.09,107.1,107.09,107.055,,,107.09,107.1,107.03,,,107.11,,107.145,,,107.19,107.255,107.26,,,,,107.27,107.205,,107.24,,107.25,107.25,107.11,107.07,107.04,,,106.96,,,,106.935,106.95,,,,106.9,106.805,,,,106.77,,,106.78,,,106.67,,,,106.61,,106.585,106.64,,106.63,,,106.6,,106.5,,106.4,106.29,,106.285,,,106.55,106.55,,106.57,106.58,106.6,106.55,106.605,,106.64,106.74,106.745,106.77,106.72,106.705,106.765,106.73,106.73,106.78,106.785,106.75,106.71,106.72,106.74,106.77,106.69,106.715,106.65,,,106.64,106.62,106.65,106.65,106.64,106.66,106.66,106.65,,106.71,,106.695,106.715,106.69,,106.72,,106.76,106.85,106.84,106.88,106.86,106.895,106.875,106.82,106.865,106.86,106.86,106.87,106.87,,106.855,106.89,106.885,106.895,106.92,106.95,106.98,106.955,106.98,107.01,107.02,106.91,106.83,106.76,106.88
2019-04-23,106.995,106.605,,107.0,,107.165,107.43,107.5,107.26,,106.84,,,106.775,,106.98,107.04,107.02,,106.895,106.755,106.45,106.43,106.33,106.19,106.26,106.14,105.82,105.89,106.16,106.11,106.07,,106.18,106.09,106.21,106.2,106.05,,106.06,,105.94,,105.92,105.85,105.875,105.75,105.655,105.615,,105.44,105.48,,,105.84,106.01,106.0,,,106.18,106.14,106.22,106.23,,106.37,106.31,106.4,,106.39,,106.44,106.59,106.605,106.65,,106.635,106.625,106.63,106.59,106.53,106.565,106.6,106.49,106.71,106.74,106.74,,,106.85,,106.89,,106.99,,107.17,,,107.03,,107.06,107.19,107.185,107.22,,107.27,107.38,,107.2,,,,107.19,,106.94,106.85,,,106.84,106.83,106.83,106.8,106.84,106.87,,,106.625,106.655,106.62,106.645,106.7,106.815,106.695,106.73,106.63,,106.69,106.665,106.73,106.715,106.63,106.67,106.735,106.83,106.95,106.97,107.085,107.05,107.05,107.01,107.12,107.1,107.1,107.055,,107.11,107.18,107.24,107.29,107.41,107.325,107.33,107.315,107.37,107.37,107.49,107.54,107.5,,107.36,107.36,107.365,107.28,107.325,,107.34,107.355,107.48,107.52,107.505,107.455,,107.44,107.405,107.38,107.265,,107.265,107.47,107.595,107.63,107.54,107.605,107.55,107.42,107.46,107.52,107.595,107.7,107.48,107.56,107.59,107.67,107.71,107.74,107.7,107.595,107.65,107.79,107.74,107.665,107.645,107.62,107.585,107.68,107.7,107.66,107.585,107.605,107.59,107.505,107.55,107.51,107.54,107.535,107.56,107.56,107.55,107.56,107.615,107.595,107.59,107.595,107.59,107.59,107.42,107.35,107.2,107.25,107.34,107.325,107.33,107.31,,,107.315,107.385,107.36,107.405,107.42,107.405,107.39,107.39,107.4,107.38,107.38,107.415,107.34,107.41,107.42,107.435,107.45,107.48,107.525,107.5,107.49,107.54,107.52,,107.545,107.56,107.53,107.57,107.55,107.58,107.58,107.69,107.69,107.7,107.7,107.69,107.795,107.83,107.785,107.815,107.795,107.82,107.75,107.78,107.815,107.84,107.81,107.8,107.72,107.775,107.49,107.475,107.48,107.435,107.48,,,107.33,107.34,107.28,107.31,107.28,107.25,107.265,107.25,107.25,107.22,107.245,107.2,,107.25,107.28,,107.22,107.22,107.19,,107.12,107.1,107.045,107.045,107.025,107.04,107.12,107.15,107.11,107.12,106.915,106.81,106.81,106.8,106.81,106.805,,106.84,106.74,106.76,106.89,106.86,106.84,106.855,106.965,106.92,106.96,106.93,106.88,106.91,106.89,106.87,106.915,106.96,106.95,106.925,106.925,106.925,106.9,106.89,106.98,106.91,106.955,106.925,106.93,106.93,106.99,106.98,106.97,106.99,106.925,106.94,106.965,106.95,106.93,106.83,106.75,106.725,106.84,106.875,106.885,106.89,106.88,106.885,106.87,106.84,106.85,106.82,106.8
2019-04-24,107.495,,107.13,,107.36,107.305,106.955,107.03,106.79,106.48,106.22,106.11,106.26,106.2,106.05,105.97,105.94,105.83,105.97,106.0,105.98,105.97,106.17,106.2,106.14,106.16,106.09,106.0,,,,,,105.325,105.34,105.1,105.09,104.95,104.985,105.05,105.15,105.0,104.935,104.9,,105.17,105.295,105.31,,105.39,105.58,105.63,105.755,105.67,105.78,,,105.92,,,,,105.815,,105.905,,,,,105.99,,105.65,105.67,105.4,105.51,105.58,105.68,105.75,105.83,,105.73,,105.52,105.52,105.5,,105.54,105.56,105.515,105.5,105.51,105.52,105.5,105.51,105.545,105.53,105.515,,105.5,105.5,105.52,105.525,,105.53,105.545,105.51,105.515,105.505,105.5,105.51,105.5,105.5,105.51,105.51,,105.5,105.53,105.52,105.555,105.68,,105.62,105.635,,,105.575,105.71,105.55,105.62,105.59,,105.535,,105.64,,,105.67,,,105.5,,,,,,,105.58,,,,,105.665,105.63,105.56,105.59,,105.59,,,,105.58,105.53,105.56,,,105.56,,,,,,,105.49,105.65,105.64,,,,,,105.5,,,,,105.505,105.4,,105.5,105.48,,,,,,,105.535,,,,,,,,105.58,,105.59,,105.57,105.66,105.8,105.72,105.67,,,,,105.515,,105.52,,,,105.45,105.435,105.44,,,,105.48,,105.49,,105.51,,,,105.51,105.48,105.44,105.41,105.18,,,105.2,105.2,105.1,105.09,105.055,,105.04,105.05,105.04,105.015,105.035,,105.02,,,,,,,104.995,105.01,104.99,104.995,104.98,105.04,105.0,104.995,,105.08,105.16,105.11,105.23,105.2,,,105.28,105.28,105.28,105.27,105.205,105.15,105.165,105.26,,105.255,105.33,105.24,105.19,,105.23,,,105.2,105.21,105.19,105.19,105.24,105.235,105.215,105.21,,105.085,105.05,105.035,105.07,,,104.97,104.96,104.955,,104.935,,105.08,105.065,,105.04,105.08,105.16,,,,,105.105,105.07,105.06,,105.045,105.03,,104.99,104.98,,104.97,104.95,104.83,,104.74,104.75,104.74,104.735,104.7,,,104.75,104.75,104.735,104.75,104.735,104.75,104.75,,104.72,104.74,104.745,104.75,104.78,104.77,104.69,104.68,104.645,104.63,,104.59,104.51,104.47,104.385,104.4,104.43,104.5,104.53,104.56,104.535,104.5,104.42,104.425,104.405,104.34,104.27,104.225,104.18,104.27,104.16,104.07,104.02,103.96
2019-04-25,103.92,,,103.765,103.5,,,,103.96,103.92,103.77,,103.79,103.73,103.855,,,,,103.75,,104.03,,103.89,103.91,103.78,103.92,103.92,103.81,103.91,103.8,103.805,,,103.58,103.59,,,103.465,103.39,103.38,103.37,103.395,103.37,103.3,,,103.19,103.11,103.11,103.17,103.305,103.33,103.51,103.49,103.61,103.61,103.64,103.57,103.55,103.57,,103.34,,,,,,,,103.535,103.47,,103.4,103.45,,,103.51,103.575,103.615,103.665,103.69,103.715,103.67,103.725,103.51,103.41,103.34,,,103.25,103.28,,103.49,103.675,103.675,103.7,103.735,103.7,103.84,103.71,103.81,103.865,103.95,103.89,103.815,103.73,103.645,103.66,103.795,103.755,104.005,104.0,104.01,103.985,104.01,103.975,103.85,,103.87,103.885,103.745,,103.63,103.66,103.815,103.85,103.905,,104.02,104.0,,,,,103.885,,103.975,103.89,103.93,103.89,103.95,103.92,,103.975,103.995,103.97,104.0,104.04,104.05,103.985,,104.04,103.95,103.955,103.98,,103.88,,,103.85,103.89,,103.85,103.85,103.83,,103.83,103.79,103.83,103.8,103.79,,103.82,103.795,103.79,,,,103.7,103.64,103.645,103.69,103.62,,103.675,103.71,103.69,,,,,103.73,,103.69,103.71,103.68,103.655,103.71,,103.64,103.58,103.59,103.6,103.57,,,,,103.62,,103.68,,103.64,,103.59,103.57,103.64,103.625,,103.6,103.62,103.66,103.675,103.66,103.635,103.55,,103.545,103.56,,103.58,103.54,103.57,103.58,103.585,103.555,,103.625,103.66,103.61,103.6,,,103.65,,,,103.65,,,103.6,,103.62,103.55,,103.59,103.62,103.51,,,,,,103.33,,103.33,,103.29,103.26,103.23,,103.185,103.17,,,,,103.07,103.065,,103.04,102.96,,103.025,,102.99,,102.95,,,102.81,102.85,102.85,102.88,102.885,102.845,102.785,102.8,102.85,102.925,102.93,,103.03,,103.01,,102.865,102.91,,102.72,102.69,102.72,,102.675,102.69,102.705,102.77,102.86,102.855,102.88,102.87,102.9,102.88,,102.9,102.91,102.855,102.88,102.85,102.83,102.84,102.815,,102.82,,102.7,102.74,102.72,102.73,102.69,102.625,102.615,102.62,102.59,102.485,102.445,102.375,,,102.44,102.53,102.52,102.6,102.56,102.57,102.695,102.845,102.96,103.01,103.02,102.89,102.9,102.92,102.84,102.79,102.75,102.8,102.835,102.79,102.82,102.805,102.77,,102.8,102.825,102.845,102.82,102.66,102.6,102.545,102.555,102.58,102.56,102.595,102.555,102.41,102.265,102.155,102.105
2019-04-26,101.375,,,,101.7,101.62,101.28,101.03,100.99,,100.39,100.23,100.345,100.15,100.01,99.82,,100.02,,100.38,100.33,100.52,100.62,100.69,,,100.4,100.44,,,,,,100.22,,,100.09,99.81,99.72,,,99.53,99.53,99.49,99.465,99.635,99.54,99.49,,99.285,,99.04,99.08,,99.125,99.185,99.15,,98.89,,98.955,98.895,98.865,,98.92,98.89,,98.79,98.7,,,,98.54,98.53,98.43,98.53,,98.65,98.69,,,,98.445,98.46,98.31,98.31,98.02,97.945,97.81,97.77,97.73,97.69,,,97.7,97.73,,,97.53,,,,,,97.62,,97.93,97.84,,97.88,,,98.05,98.17,,98.015,98.01,98.04,98.1,98.29,98.25,98.015,98.08,98.01,98.0,97.915,,98.08,,98.225,98.19,98.21,98.21,98.17,98.235,,98.07,98.17,98.19,98.21,98.25,98.08,,,,97.92,97.86,97.71,,,97.85,,97.93,97.89,,97.89,97.95,97.85,,97.86,97.85,97.86,97.85,97.75,97.83,,,97.74,97.79,97.82,97.83,97.84,,,,,,,97.44,97.41,97.45,97.45,,,97.49,97.43,97.42,97.43,97.49,97.53,97.55,97.54,97.59,,97.58,97.65,97.65,97.68,97.62,,97.65,97.64,,97.56,97.56,97.55,97.54,97.45,,97.55,97.55,97.68,,,97.76,97.7,97.725,,,97.63,97.72,97.71,97.715,97.655,97.6,,,97.445,97.43,97.435,97.345,97.44,97.44,97.44,,97.475,97.47,97.34,,97.45,97.4,,97.48,97.55,97.51,,97.45,,97.42,,,97.36,,97.52,,97.51,97.48,97.47,,,,,97.39,,,97.49,,97.59,97.58,97.62,,,97.52,,97.45,97.45,97.385,97.4,97.32,97.33,97.29,,97.285,97.18,97.08,97.32,,,97.31,,,97.46,97.59,97.71,97.71,97.59,97.62,97.71,97.74,97.54,97.54,97.59,97.65,97.62,97.615,97.555,97.48,97.4,97.4,,97.49,97.43,,97.5,,97.39,,,,97.44,97.46,97.51,,97.525,,,97.47,97.51,97.54,97.47,97.48,,97.61,97.56,97.59,97.635,97.7,,97.69,97.675,97.615,97.58,97.45,97.41,,97.37,97.43,97.46,97.42,97.51,97.52,97.5,97.5,97.46,97.47,97.46,97.53,97.47,97.46,,,97.46,97.55,97.48,,97.475,97.615,97.695,97.655,97.75,97.73,97.71,97.705,97.605,97.615,97.655,97.645,97.62,97.57,97.64,97.655,97.645,97.655,97.65,97.705,97.845,97.85,97.99,98.09,98.125
2019-04-29,,,98.22,,,98.25,98.08,97.965,97.64,97.635,97.755,97.81,,98.095,,,97.97,98.03,98.09,98.07,97.9,97.8,97.77,97.67,97.58,97.51,97.505,97.35,97.39,97.17,,97.495,97.73,,,,97.83,97.82,97.55,97.5,,97.39,97.4,97.35,,97.12,96.9,97.105,97.13,97.12,,,97.09,97.12,,,96.95,96.93,,,96.89,96.97,97.1,,,,97.11,97.105,97.04,96.99,97.0,,97.03,,,97.04,,96.96,96.91,97.03,97.08,,97.0,96.92,96.92,96.955,96.985,96.92,96.84,97.0,96.87,96.95,96.88,96.96,96.935,96.96,96.85,96.89,,,96.94,,96.95,96.97,96.92,96.79,96.84,,96.885,96.89,96.87,96.935,,97.0,97.03,97.025,97.165,97.2,,,97.43,97.51,97.43,97.59,,,97.69,,97.71,97.65,,97.405,,97.405,97.325,,,97.35,,97.35,97.29,97.38,97.405,,97.35,,97.34,,97.43,97.46,,,,,97.62,,,,,,,,97.68,97.6,,,,,,,97.61,97.59,97.595,,,,,,,,97.6,,,97.46,,97.505,97.53,97.53,,,97.575,97.58,97.69,97.75,97.645,97.64,97.645,97.71,,,97.85,,97.705,97.7,97.67,,,,97.62,,,97.66,,,,,,,97.59,97.62,,97.725,97.65,97.62,,,,,,,97.55,,97.63,,,97.61,97.58,,,97.58,97.57,,,,,,97.56,97.505,97.48,,,,,,97.565,97.58,,97.56,,,97.7,97.675,,,,97.68,97.64,97.62,,,,,,,,,,,,,,,,,,,,,97.45,97.41,,97.48,,97.53,97.5,,,97.48,,97.485,97.45,,,97.53,,97.47,97.45,,97.39,,,97.31,97.3,97.33,97.29,97.315,,,97.335,97.305,97.24,,97.15,,97.08,,,97.035,,96.88,96.89,96.94,,97.06,,97.07,,,97.03,,97.07,97.07,,97.055,,97.1,,97.01,,97.0,,97.02,,97.01,96.89,96.91,,,96.91,,97.035,97.04,97.07,97.06,96.99,97.06,97.095,97.175,97.175,97.16,97.17,97.21,,97.155,97.165,97.195,97.145,97.19,97.22,97.195,97.215,97.185,97.125,97.145,97.155,97.13,,97.11,97.095,97.14
2019-04-30,98.04,98.31,,,97.75,97.71,97.58,97.51,97.48,97.56,97.25,,97.03,,97.14,,,97.01,96.97,97.03,96.93,,,96.91,,96.76,96.63,96.68,96.695,,96.58,96.605,96.55,,,96.435,96.4,96.4,96.31,96.325,,96.39,,,96.165,96.12,96.015,95.75,95.53,95.565,95.375,95.31,95.22,95.54,95.67,95.75,,95.91,,95.855,95.94,,96.02,96.22,96.23,,96.19,96.165,96.17,96.17,,96.15,,96.15,,96.01,95.88,95.66,95.57,95.57,95.75,95.785,95.81,95.85,,,96.07,96.04,96.09,96.175,96.175,96.105,96.085,95.98,95.78,95.72,95.66,95.59,95.45,95.34,95.47,95.53,95.42,95.37,95.32,95.62,95.61,95.435,95.47,95.465,95.635,95.645,95.63,95.85,95.8,95.94,95.91,95.93,95.815,95.89,95.86,96.03,95.965,95.88,95.95,,,95.94,96.045,96.14,96.15,96.05,95.9,95.825,95.855,95.74,95.545,95.495,95.565,95.785,95.84,95.89,95.92,95.8,95.74,95.845,,95.84,95.83,95.8,95.68,95.72,,95.7,,95.69,95.68,95.61,,,95.655,95.68,95.64,95.615,,95.58,95.55,95.535,95.46,95.475,95.5,95.54,,,95.445,,95.535,,,95.53,95.645,95.67,,95.61,95.56,95.54,,,95.525,95.52,95.46,95.485,95.49,,,95.48,95.49,95.465,,,,95.41,95.43,95.34,,,95.46,95.5,95.49,,95.62,95.585,,,,95.65,,,95.71,,95.67,,,95.65,95.59,95.55,95.55,95.55,95.54,95.47,95.46,95.45,95.44,95.43,95.41,95.37,,,95.28,95.295,95.34,95.33,95.35,95.4,95.4,95.41,95.375,95.325,,95.29,95.265,95.19,95.145,,,,,95.195,95.19,95.17,95.2,95.15,,95.19,95.16,95.15,,95.05,95.09,,,,95.0,,95.03,95.03,95.04,95.01,95.025,95.08,95.06,95.07,95.1,95.12,95.1,95.13,95.05,95.055,95.03,95.045,,95.03,95.1,95.12,95.09,95.13,95.165,,95.21,,95.23,,95.155,,95.18,95.235,95.18,95.18,95.24,95.23,95.18,95.21,95.14,95.0,,95.21,95.21,95.275,95.3,95.36,95.44,95.56,95.54,,,95.57,,,,95.61,95.59,95.58,95.605,95.62,95.67,95.64,95.625,95.655,,95.645,95.65,95.67,95.73,95.79,95.735,95.72,95.75,95.77,95.76,95.72,95.77,95.91,95.925,95.87,95.83,95.81,95.75,95.8,95.84,95.945,95.855,95.81,95.85,95.89,95.915,95.915,95.99,95.905,95.93,95.915,95.93,95.89,95.99,95.93,95.91,95.98,95.89,95.85,95.86,95.865,95.87,95.83,95.89,95.91,95.93,95.93,95.97,95.95,95.92,95.93
2019-05-01,95.905,,,96.08,95.82,95.815,95.77,,95.73,95.715,95.45,,95.19,95.33,95.565,95.585,95.81,95.77,95.72,95.78,95.62,95.76,,95.48,95.34,95.35,95.3,95.25,95.17,95.17,95.02,95.03,94.88,94.92,94.79,94.87,,95.065,95.24,95.23,,95.265,95.27,95.09,95.115,95.13,95.05,95.22,95.16,95.18,,95.31,95.26,95.32,95.28,95.265,95.3,95.22,95.0,95.01,95.0,94.66,94.645,94.73,94.68,94.83,94.77,94.89,,94.97,94.9,94.66,94.73,94.735,94.765,94.855,94.77,94.75,94.695,,,94.54,,94.54,94.485,94.38,,94.3,94.345,94.23,94.17,94.21,94.05,94.095,94.1,94.13,94.2,94.115,94.11,94.01,94.14,94.165,94.14,94.11,94.04,,93.955,93.94,94.02,,94.01,93.95,,,93.95,94.04,93.985,93.95,93.97,94.02,93.95,94.01,93.93,93.97,,93.98,93.925,93.94,93.94,94.02,93.98,94.24,94.24,94.22,94.23,94.16,94.155,94.15,94.135,94.04,94.07,94.065,94.19,94.05,94.06,94.04,94.07,94.05,94.065,94.06,94.03,94.01,93.94,93.96,93.99,94.04,94.02,93.96,93.91,93.85,93.78,93.71,93.745,93.7,93.58,93.57,93.6,,93.565,93.47,93.44,93.45,93.57,93.55,93.6,93.61,,93.67,93.645,93.63,,,93.47,93.45,93.45,93.485,93.47,,93.39,93.39,93.41,93.33,93.345,93.37,93.35,93.32,93.31,93.28,93.23,93.2,93.18,93.17,93.145,93.08,93.15,93.28,93.27,93.37,93.38,,93.55,93.47,93.42,93.35,93.47,,93.37,93.34,93.45,93.34,,93.445,93.45,93.35,,,,,93.41,93.465,93.44,93.4,93.35,,,,93.36,93.33,,93.33,93.31,93.21,93.255,93.28,93.315,,93.38,93.36,93.51,93.49,93.545,,93.57,93.6,93.51,93.4,93.475,93.5,93.46,,,93.45,93.55,93.55,,,93.54,93.5,,93.45,93.47,93.44,93.365,93.4,93.44,93.64,,93.7,93.78,93.66,93.6,93.54,93.56,,93.63,93.59,93.64,93.76,93.84,93.77,93.71,93.72,93.76,93.83,93.85,93.85,93.86,93.72,93.8,93.64,93.55,93.55,93.54,93.51,93.405,93.4,93.415,93.4,93.46,,93.14,93.2,,93.14,93.15,93.07,93.11,,,93.1,93.14,93.22,93.185,93.33,93.44,93.48,93.48,93.55,93.45,93.45,93.43,93.565,,93.38,,,93.3,,93.35,,93.31,93.3,93.28,93.29,93.24,93.31,93.265,93.3,93.31,93.3,,93.23,93.185,93.08,93.08,,92.97,92.96,92.97,92.98,92.97,92.92,92.875,92.79,92.85,92.73,92.785,92.675,92.7,92.715,92.635,92.63,92.73,92.75,92.76,92.64,92.59,92.52,92.555,92.54,92.56,92.57,92.56,92.59,92.6,92.5,92.36,92.34,92.26,92.2
2019-05-02,91.12,,91.27,91.08,91.53,91.7,91.73,91.77,91.65,91.92,92.065,,91.645,91.61,91.9,91.87,91.76,,91.88,91.93,91.925,91.91,91.92,,91.66,91.64,91.715,91.495,91.58,91.59,91.63,91.79,91.79,91.63,91.64,91.67,91.64,91.53,91.5,91.395,91.3,91.31,91.28,,91.52,91.435,,,91.385,91.31,91.3,91.58,91.58,91.65,91.645,91.65,91.64,91.64,91.48,91.425,91.34,91.38,91.41,91.45,,,91.25,91.16,,,,90.96,,,90.83,90.83,90.805,90.75,90.61,90.69,,,90.68,90.735,90.635,90.8,90.73,90.66,90.57,,90.505,90.47,90.47,90.475,90.515,90.535,90.52,90.49,90.41,90.37,90.515,90.45,90.445,90.39,90.35,90.42,90.335,90.29,90.19,90.13,90.0,89.86,89.96,89.89,,,89.92,89.925,89.86,89.8,89.81,89.94,89.99,89.96,,89.87,90.0,,,89.88,89.82,,89.77,,89.65,,,,,89.8,89.85,,89.57,89.63,89.53,89.44,89.465,,89.385,89.31,,,,89.64,89.61,89.82,89.875,89.79,,89.675,,89.81,89.79,89.83,89.83,89.66,,89.64,89.6,89.57,89.5,,89.52,89.6,89.615,89.52,89.81,89.755,89.755,89.73,89.85,89.85,90.05,89.92,89.865,89.84,89.76,89.82,89.82,89.87,89.8,89.775,,,89.82,89.75,89.8,,89.77,89.85,89.8,89.71,89.57,89.54,89.6,89.66,89.655,89.6,,89.655,89.72,,,,89.43,89.44,,89.41,89.475,89.46,89.56,89.57,89.57,,89.57,,89.76,89.76,89.75,89.81,89.875,,89.95,89.98,89.97,89.99,,89.96,,,89.92,89.93,89.88,89.87,89.85,,89.83,89.83,89.83,89.855,89.8,89.82,89.755,89.72,89.825,,89.845,89.8,89.75,,89.75,89.75,,89.73,89.7,,89.74,,89.755,,,89.61,89.58,89.56,89.55,89.61,89.64,89.55,89.605,89.7,89.685,89.59,,,89.75,89.61,,89.75,89.75,,89.67,89.65,89.75,89.81,,89.96,89.935,89.725,89.55,89.51,89.66,,89.66,89.63,89.7,89.63,89.59,,89.79,89.695,89.75,89.73,89.7,89.8,89.81,89.77,,89.67,89.65,,89.575,89.76,89.8,89.795,89.715,89.725,,89.79,89.77,89.71,89.73,,89.78,,89.75,89.8,89.76,,89.675,89.61,89.615,89.67,89.61,89.67,89.6,89.55,,89.71,,89.785,89.74,89.71,,,89.78,,89.8,,89.74,89.77,89.83,,,89.62,89.645,89.62,89.56,89.66,89.7,89.75,89.66,89.56,89.66,89.74,89.75,89.75,89.71,89.675,89.805,89.77,89.74,89.715,89.62,89.62,89.575,89.65,89.505,89.52,89.5,89.395
2019-05-03,,92.27,92.245,92.06,91.85,92.245,91.805,91.335,91.39,91.18,,91.14,91.18,91.21,91.2,91.3,90.93,90.17,90.06,90.53,90.605,90.82,90.92,90.875,,90.95,91.045,,90.92,90.945,91.2,91.055,90.855,91.275,91.53,91.745,91.87,91.895,,91.78,91.755,91.795,91.895,91.87,91.87,91.84,92.08,92.025,92.1,92.3,92.235,92.255,92.32,92.4,92.35,92.525,92.62,92.71,92.97,93.05,92.83,92.885,92.875,92.81,92.875,93.0,92.895,92.92,92.97,93.0,93.02,93.02,93.015,93.0,93.04,93.02,93.02,92.99,93.05,93.015,93.02,92.97,92.96,93.01,92.99,92.97,93.02,92.98,92.995,93.01,92.97,92.97,93.09,93.41,93.245,,93.35,93.34,93.21,93.45,93.59,93.4,93.15,93.25,93.13,93.05,92.97,92.975,92.67,92.72,,,92.6,92.615,92.72,92.88,,,,92.76,92.75,,92.79,,92.9,92.72,,,,92.75,92.77,92.74,92.83,92.83,92.81,92.75,92.75,92.72,,92.65,92.65,92.73,92.78,92.77,92.64,92.72,92.71,92.625,92.65,92.61,,92.715,92.71,92.72,,92.81,92.91,92.93,92.91,,92.91,92.9,92.9,,92.74,92.77,,92.8,92.76,92.75,,,92.78,,92.785,92.78,,92.785,92.75,92.76,92.8,,92.885,92.84,92.75,92.74,92.75,92.77,,92.825,92.92,92.96,92.99,93.03,93.03,93.03,92.84,,,93.02,93.0,93.01,92.905,,92.85,,92.64,92.74,,92.76,,92.75,,92.83,92.73,,,,92.73,92.715,92.68,92.69,92.7,92.68,92.66,92.655,92.66,92.55,92.66,92.65,,92.76,92.7,,92.66,92.735,92.72,92.63,92.62,92.63,92.68,92.61,92.57,92.53,92.3,92.28,92.15,,92.09,,92.12,,,92.21,92.02,,,92.12,92.12,92.18,92.13,92.205,92.12,92.115,92.105,91.84,91.84,91.78,91.86,91.87,,91.74,,91.69,91.7,,91.82,91.83,91.84,91.95,,,,,92.05,92.06,,92.15,92.165,,92.16,92.23,92.22,,,91.945,91.96,91.94,,,91.9,,,91.8,,,91.77,91.71,91.68,91.65,91.64,91.69,,91.735,91.715,91.78,91.79,91.78,91.71,91.725,91.735,,,92.04,92.125,92.11,92.15,,91.94,,91.82,91.85,,,91.79,,91.78,91.84,,,,,,91.76,91.76,,,91.72,91.74,91.69,91.7,91.69,91.68,91.74,91.69,91.695,91.76,,91.835,91.66,,91.65,91.64,91.57,91.65,91.64,91.58,91.515,91.535,91.58,91.675,91.65,91.63,91.38,91.48,91.49,91.39,91.42,91.23,91.23,91.28,91.36,91.4,91.28,91.34,91.49,91.52,91.55,91.56,91.47
2019-05-06,89.65,90.19,,90.62,,90.525,90.17,90.1,90.03,,90.0,,,,90.0,89.97,90.01,90.05,90.085,90.14,89.93,89.86,89.965,90.025,90.355,90.54,90.585,90.52,90.855,90.685,90.9,90.755,,90.55,90.58,90.655,90.8,,91.09,91.22,,91.27,91.385,91.4,91.6,91.55,91.575,91.38,91.415,91.54,91.44,91.41,91.425,91.27,91.135,91.215,91.14,91.265,,91.115,90.875,90.86,,,90.71,,90.725,,90.92,90.9,90.895,91.03,91.015,90.95,90.86,,90.815,90.755,90.64,90.56,90.41,,90.675,90.555,90.625,90.61,90.77,90.785,,,,90.875,,90.82,90.72,90.705,90.57,90.5,90.5,90.48,90.55,90.52,90.49,,90.72,,90.87,91.08,91.01,90.99,,91.015,91.01,90.92,,,,90.94,,91.0,90.9,,90.91,90.72,90.63,90.78,90.86,90.975,,,91.11,91.12,91.11,91.01,90.965,,91.215,91.11,,,90.96,90.85,90.83,90.94,90.89,90.78,90.76,90.59,90.595,90.525,,90.53,,,90.56,,90.55,90.58,90.65,90.68,,90.63,,90.69,90.69,,,90.825,90.78,,,90.99,90.96,,90.96,90.985,,91.005,90.925,90.9,90.845,90.72,90.62,90.575,90.57,90.56,90.625,,90.55,90.6,,,,90.71,90.71,90.7,,90.695,,,90.62,90.63,90.615,90.685,90.675,90.745,90.735,90.77,90.805,90.77,90.67,90.675,90.66,90.69,90.695,90.75,90.78,90.8,90.775,90.605,90.6,,,90.685,90.65,,90.815,,90.85,90.805,90.89,,90.845,90.86,,,90.89,90.915,90.905,90.915,90.895,,90.88,,,90.92,,90.9,90.895,90.895,,90.91,,,,,91.24,91.24,91.24,,91.29,,,91.36,,91.395,91.33,,91.24,91.26,91.21,91.17,91.17,91.21,,91.2,91.235,91.225,91.26,91.29,91.305,91.175,91.31,91.29,91.23,91.2,91.21,91.14,,,,91.14,91.14,,91.125,91.125,91.2,91.23,,91.23,91.22,91.3,91.28,91.265,91.165,91.19,91.155,91.205,,,91.34,,91.325,91.41,91.41,91.41,91.43,91.425,91.45,91.55,,91.68,91.605,91.605,91.6,,91.63,91.66,91.655,91.6,,91.67,,91.75,91.8,91.73,91.81,91.81,91.73,91.7,91.65,91.615,91.63,91.585,91.615,91.48,91.52,91.56,91.55,91.6,91.62,91.67,91.655,91.66,,91.775,91.84,91.785,91.82,91.815,91.75,91.64,91.63,91.53,91.475,91.56,91.565,91.45,91.54,91.38,91.42,91.335,91.25,91.24,91.26,91.25,91.22,91.16,91.22,91.19,91.365,91.38,91.495,91.47,91.34,91.33,91.32,91.295,91.37,91.375
2019-05-07,89.88,90.0,89.93,89.895,89.935,89.89,89.865,89.99,90.615,90.705,90.29,90.39,90.665,90.645,90.61,,90.43,90.29,,,90.0,89.83,89.905,,90.39,90.51,90.54,,,90.61,90.74,90.55,90.49,90.665,90.74,90.785,90.73,90.75,90.77,90.885,90.76,90.79,,91.0,91.065,91.13,90.98,90.94,,91.06,91.08,91.27,91.24,91.24,,91.2,91.23,91.32,91.25,91.38,91.28,91.25,91.1,,90.75,90.57,,90.575,90.62,90.705,90.665,90.915,90.945,91.04,90.91,90.89,90.955,90.79,90.775,90.77,90.625,90.555,90.59,90.67,90.585,90.595,90.585,90.6,90.625,90.56,90.665,90.79,90.57,90.435,90.47,90.49,90.495,90.49,90.465,90.57,,90.655,90.73,90.585,90.71,,90.72,90.75,,90.73,90.63,,,90.65,90.665,90.65,90.665,,90.82,90.94,,91.04,91.14,91.04,,,90.79,90.73,90.65,90.775,90.955,90.8,,,90.81,,90.87,,,90.855,,,90.7,90.765,90.74,90.72,,90.59,90.51,90.555,90.51,,90.5,90.495,90.625,90.63,90.69,,,,90.8,,,,90.76,90.71,90.8,,,,,,90.75,,,,90.72,,,,,,90.95,90.89,,90.88,90.895,90.92,,90.93,90.885,,90.89,90.92,90.89,90.91,,,,90.92,90.88,90.96,,90.93,,90.78,,90.61,90.6,90.74,90.715,90.705,90.69,90.67,90.64,90.545,90.58,90.595,90.465,90.45,,90.39,90.425,90.48,,,,90.45,,,90.365,,90.395,,90.44,90.44,,90.39,90.44,,90.31,90.32,90.24,90.38,90.425,90.45,90.46,90.28,90.38,,90.34,90.26,90.245,90.28,,,90.27,,90.375,90.49,90.52,,90.58,90.71,90.59,90.495,,,90.55,,90.53,,,,90.6,,90.75,90.76,,90.785,90.765,,,,90.77,,90.73,90.69,90.665,,,90.76,,90.72,90.64,90.675,,90.6,90.61,90.57,90.62,90.65,90.43,90.5,90.425,90.515,90.65,90.655,90.685,,,90.77,90.73,90.65,90.6,,90.67,90.63,,,90.63,90.66,90.685,90.72,90.805,91.0,90.98,91.02,91.04,91.07,91.03,,91.03,90.91,90.95,90.94,90.915,90.955,90.97,,,91.21,91.28,91.305,91.285,91.32,91.23,91.26,91.245,91.155,91.19,91.19,91.18,91.15,91.03,91.085,91.04,91.05,91.04,91.05,91.07,91.06,91.09,91.095,91.04,91.025,91.04,91.055,,91.1,91.065,,91.22,91.34,91.39,91.5,91.47,91.44,91.5,91.47,91.42,,91.58,91.57,91.71,91.79,91.8,91.7,91.745,91.71
2019-05-08,91.615,,92.235,92.03,,92.445,92.61,92.875,92.82,92.68,,92.79,92.835,92.695,,92.99,93.18,93.3,93.38,93.445,93.3,93.195,93.38,93.67,,93.29,93.15,93.11,93.08,93.24,93.31,93.44,93.5,93.2,,,93.56,,93.595,93.615,93.64,93.43,,93.47,,,93.425,,,93.33,93.45,93.49,93.58,93.62,93.63,93.69,93.66,93.625,,93.43,93.755,93.69,93.49,93.405,,93.4,93.42,93.45,,93.43,93.57,,93.63,93.63,93.68,,93.66,,93.83,93.805,,,93.77,,93.585,93.6,,93.54,93.64,93.69,93.92,94.125,94.1,94.17,94.305,94.35,94.505,94.655,94.6,94.47,94.425,94.4,94.18,94.295,94.495,94.52,94.495,94.485,94.34,,,94.295,94.195,94.18,94.12,,,,93.92,,94.01,94.01,94.01,93.88,93.885,93.97,93.99,93.85,93.88,,,93.78,,93.78,93.76,93.83,,93.92,,,93.98,,93.915,,93.94,,94.05,,,94.02,94.015,,93.87,,,,,93.91,,,93.69,93.73,93.7,93.75,93.715,93.74,,93.82,93.825,93.75,93.71,93.735,,,,93.81,93.8,93.85,93.85,93.95,,,,93.7,,,93.71,,93.64,93.58,93.57,93.56,,,,93.57,93.62,93.67,93.66,93.77,,93.81,93.8,93.71,,93.69,93.67,93.76,93.77,93.785,93.775,,,,93.81,93.79,93.72,93.78,93.78,93.77,93.795,93.795,,93.765,93.755,93.765,93.67,93.685,93.665,93.645,,93.72,,,93.815,93.72,93.79,,,93.72,,93.655,93.725,93.79,93.805,93.805,93.755,93.81,,,,,93.78,93.82,,93.805,93.855,93.71,93.735,93.79,,,93.81,93.825,93.74,93.73,93.72,,,,93.81,,93.705,93.725,93.755,,93.69,93.71,93.74,93.82,93.76,93.76,,93.655,,93.67,93.7,93.74,93.71,93.665,93.67,93.695,93.75,93.77,93.84,93.92,93.995,94.03,94.01,94.045,94.175,94.14,94.15,,94.235,94.24,94.21,94.17,,,94.29,94.27,94.23,94.19,94.215,94.29,94.18,94.17,,94.12,,,94.17,94.195,94.25,94.26,,94.15,94.25,94.25,94.26,94.2,94.255,94.24,94.15,94.1,94.12,94.22,94.14,,,94.22,94.22,94.32,94.355,94.15,94.135,,94.26,,,,,94.31,94.275,94.34,94.385,94.415,94.455,94.39,94.395,94.39,94.365,94.44,94.41,,94.45,94.46,94.37,94.34,94.37,94.38,94.305,94.305,94.29,94.29,94.265,94.22,94.305,94.275,94.265,94.14,94.22,94.22,94.21,94.155,94.085,94.13,94.13,94.13
2019-05-09,92.67,92.615,92.635,,,92.88,,92.79,,93.23,93.23,,93.21,,,92.66,92.57,,,92.47,92.32,92.31,,92.35,,92.335,92.44,92.48,,92.69,92.82,92.79,92.68,92.59,92.79,,92.805,92.96,92.92,92.955,92.88,,,92.85,92.89,92.87,,92.705,,92.64,92.47,92.66,92.58,92.76,92.76,92.76,92.75,,92.84,92.94,93.135,93.065,93.125,93.035,,92.955,92.98,92.96,92.75,,92.78,92.81,93.04,93.17,93.26,93.3,93.295,93.43,,93.42,93.375,93.425,,93.425,93.47,93.365,93.4,93.37,93.41,93.37,93.43,93.49,93.49,93.49,93.595,93.54,93.6,93.525,93.6,,93.755,93.82,93.755,,93.86,93.79,,,,,,93.455,,,93.255,93.37,93.33,93.225,93.155,93.155,93.3,93.25,93.37,,,,93.515,93.5,,93.65,93.77,93.71,93.58,93.65,93.71,93.74,,93.72,,,,,93.73,93.695,93.75,,,,93.725,,93.88,,,93.815,93.82,93.83,93.81,93.87,93.965,94.02,93.98,93.95,,,,93.91,,,94.14,,94.03,94.025,94.01,94.04,94.04,93.99,,94.145,94.32,94.29,94.35,,94.52,94.53,94.54,,,,94.72,94.785,,,94.83,94.58,94.63,94.67,94.71,94.635,94.605,94.61,94.59,94.565,94.53,94.78,94.76,,94.8,,94.73,94.85,95.0,,95.04,95.06,95.03,,,94.815,,,94.78,94.62,,94.78,94.785,94.71,,94.59,,94.49,94.49,,94.555,94.59,94.56,,,94.57,94.655,94.625,94.67,,,,,,94.71,94.635,94.595,,94.665,94.625,,,,,94.6,94.565,94.545,94.71,94.74,94.685,,94.655,94.645,94.665,94.665,94.7,94.72,94.715,94.81,,94.675,94.63,94.58,,94.75,94.73,94.67,,94.735,94.79,94.74,94.8,94.81,94.79,94.77,94.77,,94.715,94.7,94.78,,,94.715,94.675,94.64,94.5,94.46,,94.46,94.47,94.52,94.545,94.505,94.395,,94.38,,94.42,94.44,94.46,94.425,94.515,94.39,94.36,94.35,94.34,94.33,94.29,94.27,94.35,94.355,94.37,94.36,94.35,94.3,94.25,,94.15,94.22,94.09,,94.12,94.2,94.17,94.14,94.14,,93.905,93.885,93.94,93.94,94.03,94.01,,94.015,94.04,93.99,94.03,94.065,94.105,94.095,94.13,94.165,94.145,94.155,94.135,94.16,94.18,,94.31,,94.34,94.39,94.405,94.31,94.27,,94.34,94.35,94.3,94.26,,94.34,94.315,94.32,94.32,94.33,94.33,94.26,94.35,94.34,94.33,94.32,94.37,94.36,94.35,94.31,94.31
2019-05-10,94.205,,93.91,94.01,94.1,94.015,93.93,94.115,94.105,94.2,94.185,94.16,94.15,93.92,93.93,93.835,93.91,,94.08,93.84,93.72,93.6,93.545,93.715,93.71,93.655,,93.7,93.71,93.72,93.68,93.53,93.565,,93.57,93.44,93.35,93.395,,93.44,,93.455,93.48,93.39,93.35,93.3,93.01,92.905,92.99,,92.94,92.92,92.905,92.89,92.825,93.035,,,93.08,93.065,93.135,93.045,93.065,93.02,,93.03,,92.885,92.87,92.72,92.835,92.65,92.73,92.74,92.8,92.81,93.1,93.025,93.13,93.03,93.015,93.04,93.16,,93.175,93.15,93.15,93.145,93.28,93.23,93.215,,93.155,,93.095,,93.23,93.29,,93.115,93.05,93.09,93.07,93.09,93.24,93.17,,93.27,93.335,93.36,93.475,,93.64,93.585,93.58,93.59,93.53,93.61,,93.58,93.56,93.43,,93.475,,93.45,93.42,,93.66,,93.61,93.63,93.435,93.275,93.4,93.48,93.37,,93.43,93.34,93.27,,,,93.45,93.66,93.56,93.575,93.61,,93.725,93.74,93.695,93.725,93.64,93.68,93.585,93.53,,,93.54,93.55,93.68,,93.8,93.765,,93.86,93.86,93.86,93.8,,93.86,,93.84,,93.955,93.98,,,,94.115,94.13,94.32,,,,,,,,94.165,94.06,,,94.18,,94.17,,94.065,,,,,,94.34,94.32,94.265,,,94.28,94.39,,,,94.405,94.35,,,,,94.38,,,,,94.27,94.215,94.32,,,,94.52,94.39,,94.47,,,94.51,94.48,,94.52,94.53,94.575,,,94.545,,94.475,,94.57,,94.525,94.47,,,94.58,,94.545,,94.595,94.605,94.58,,94.62,,94.51,,,94.575,94.55,94.56,94.625,94.625,,,94.62,94.7,94.71,94.675,,94.725,94.665,94.67,94.535,94.51,94.42,94.46,94.35,94.35,94.28,94.28,94.205,94.13,94.09,94.075,,94.22,94.19,,94.18,94.155,94.215,,,94.27,94.24,94.295,94.33,,94.425,94.425,94.405,,94.375,94.365,94.37,94.375,,94.4,94.425,94.42,94.465,,94.5,94.55,,94.56,94.58,94.59,94.59,94.65,94.77,94.675,94.78,94.795,94.8,94.72,94.725,94.73,94.765,,,,94.74,,94.885,,95.01,,95.11,95.06,95.11,,95.13,95.085,95.18,,,95.21,95.15,95.11,94.995,94.97,,94.81,,,94.74,94.71,94.68,94.66,94.65,94.65,94.63,94.65,94.76,94.76,94.71,94.65,94.69,94.71,94.71,94.79,94.8,94.8,94.815,94.86,94.895,94.95
2019-05-13,,,,,94.35,94.43,94.53,94.52,94.53,,94.54,,94.76,,,,,,94.88,94.7,,94.535,94.49,94.455,,,,94.295,94.31,94.34,,,94.14,94.02,94.085,,93.94,93.99,94.005,,93.76,93.66,93.675,93.705,93.72,93.79,93.91,93.91,94.22,94.17,94.07,93.895,93.875,,94.09,94.17,,94.09,94.23,94.24,94.22,94.31,,94.31,94.335,94.42,94.55,94.69,94.485,94.61,94.9,94.925,95.145,95.255,95.23,95.16,95.25,95.17,95.08,94.82,,,,94.8,,94.75,,,,94.81,94.96,94.94,94.69,94.61,,94.49,,94.61,94.615,94.575,94.51,,94.515,,94.4,,94.235,93.99,,94.06,94.18,94.18,94.115,,94.24,94.09,94.01,93.895,93.885,93.96,,93.99,94.0,,94.015,,,93.9,,,,93.68,93.8,93.89,93.9,93.875,,93.85,93.84,93.83,93.89,93.67,,,,93.59,93.59,93.665,,,,,,93.85,93.78,93.8,93.82,93.81,93.79,93.68,93.715,93.795,93.65,93.755,,,93.63,,,93.815,93.805,,93.83,,93.77,93.85,,,93.82,93.85,93.71,93.595,93.69,93.725,93.695,93.785,93.82,93.85,94.0,94.015,94.015,93.98,93.84,93.805,93.86,93.9,93.9,,,93.97,93.975,,94.085,,94.035,,93.775,93.865,,93.9,93.91,93.75,93.705,93.78,93.805,93.81,93.78,93.755,93.635,93.625,93.57,,93.685,93.77,,93.75,93.68,93.7,,,93.72,,,,93.76,93.86,93.79,,93.715,,93.66,93.91,,93.82,,,,,93.79,93.94,93.85,93.8,93.805,93.76,93.695,93.62,93.62,93.62,93.55,93.71,,,,,93.61,,93.645,93.585,93.61,93.63,,93.7,93.7,93.765,93.81,93.825,93.825,,,93.85,93.86,,93.66,93.685,93.605,93.64,93.57,93.595,93.62,93.64,93.75,,93.635,,93.57,93.69,93.87,,93.87,93.955,,,,,93.73,93.68,93.63,,,93.76,93.625,,,,,,93.68,,,,,,,,,,,93.9,,,93.85,93.87,,93.74,,93.62,93.7,,93.77,,93.65,93.65,93.62,93.57,93.495,93.47,,,93.41,93.39,93.44,,,,93.37,93.37,,93.23,,93.295,93.285,93.34,93.33,,,93.41,93.34,93.34,93.33,93.38,93.42,93.39,,,93.35,93.44,93.38,93.43,93.445,,,93.435,93.43,93.39,93.33,93.41,93.52,93.53,93.56,93.58
2019-05-14,94.1,94.1,,,94.7,94.36,94.55,,,,94.375,94.405,,94.495,94.44,,94.58,94.485,94.57,94.475,,94.17,94.09,,94.13,94.11,,94.33,,94.35,94.415,94.535,94.61,,,94.56,,94.71,94.71,94.7,,94.615,94.67,94.54,94.43,94.6,94.63,94.65,94.655,94.8,94.86,94.895,94.905,94.9,94.85,94.835,94.885,94.92,94.93,95.06,,94.95,94.975,95.11,,95.09,95.06,95.05,,,,95.085,95.105,95.095,,,95.07,95.03,,95.01,94.97,,94.89,,,94.71,,,94.57,94.6,94.64,94.655,,,94.435,94.63,94.74,,,94.74,94.72,94.63,94.74,,94.735,,94.79,94.785,94.875,,95.01,94.97,94.79,94.77,94.9,94.94,94.885,,94.81,,94.795,94.86,,,94.86,94.99,95.03,94.95,94.96,94.85,94.91,94.905,94.97,94.95,,94.76,94.905,94.91,94.98,,94.92,95.01,95.05,95.065,,95.18,95.27,,95.125,,95.1,,,,95.245,95.235,,95.2,95.15,,95.11,,,,95.13,,95.05,,,,94.91,94.86,94.9,94.885,94.82,,94.82,94.85,,94.785,94.84,,94.865,,94.95,,94.94,,,95.03,95.03,,,95.075,,,,95.01,,,,95.07,,,95.175,95.14,95.075,95.14,95.06,95.055,95.13,,,,,95.01,,,,,95.065,95.15,95.18,95.25,95.225,95.27,95.23,,,95.195,95.16,,95.12,,95.18,,,,95.17,,,95.17,95.17,95.13,,95.12,95.16,95.14,95.13,95.04,,,94.915,,,,,,94.89,,94.945,94.93,94.89,,,,94.995,94.97,94.98,,94.93,,94.93,,,,,94.74,94.72,94.76,94.79,94.785,94.82,,,94.815,,94.84,94.86,94.805,94.77,94.75,94.74,94.76,94.77,94.8,94.77,94.69,,,94.66,94.625,94.61,94.63,94.64,,,94.58,94.59,94.61,,94.595,,,94.6,,94.48,,94.42,94.39,94.34,94.31,94.28,94.315,94.28,94.235,94.34,94.365,94.335,94.36,94.335,94.38,94.35,94.45,94.49,94.43,94.42,,94.43,94.46,94.54,94.465,,,94.35,94.38,,94.3,94.355,94.375,94.365,94.34,,,,,94.32,94.42,94.425,,,94.335,,94.285,94.225,94.245,,94.135,94.15,,94.18,94.15,94.15,94.255,94.26,94.24,94.13,94.2,,94.28,94.265,94.29,94.265,94.2,94.23,94.365,94.31,94.22,94.3,94.28
2019-05-15,,,,93.185,93.63,,,93.845,93.7,,93.785,93.705,,,93.685,,,,,,93.82,93.71,,93.7,93.84,,,93.77,93.495,93.575,93.625,,93.455,93.41,93.42,93.385,93.325,93.315,93.435,93.3,93.49,93.435,93.39,93.265,93.49,93.83,93.63,93.62,93.625,,,93.59,93.61,93.515,,93.6,93.715,,,93.645,93.68,93.665,93.75,,,93.69,,93.65,93.7,93.78,93.84,93.76,93.735,93.83,93.89,94.02,,94.03,93.92,,,94.085,,94.14,94.045,,93.975,,,93.87,93.835,93.805,,93.69,,93.61,,93.78,93.77,93.78,93.8,,94.0,94.005,,,94.115,94.04,,94.015,94.095,94.04,94.04,94.14,,94.185,94.335,,,,,,94.17,,94.285,94.23,,94.125,94.19,,94.24,,94.395,,,94.27,,,94.245,,94.31,94.31,94.2,,,,94.295,,94.405,94.41,94.45,,94.51,,94.535,94.505,94.51,,,94.54,94.535,94.535,,94.445,94.52,,,,,94.37,,,,,94.31,,94.29,94.32,,,,,,,,94.455,94.395,,94.31,94.31,,,94.24,,94.23,,,94.15,,94.245,,,,,,94.42,94.395,94.35,,94.22,94.25,94.275,,94.33,,94.355,,,94.31,94.32,94.305,,94.26,94.26,94.235,94.195,94.24,,94.185,,94.15,,,,94.09,,94.13,94.15,,94.16,,94.2,94.26,94.255,94.34,,,94.38,94.39,,,,94.35,,,,94.21,,94.2,,,,,,,94.23,,94.19,94.19,,94.185,94.175,94.155,,,94.215,,,,,94.275,,,,,94.13,,,94.22,,,94.28,,,94.395,,,,,,,94.225,94.26,,,,,,94.135,94.16,,,,94.27,,,,94.35,,,94.39,,,,,,94.275,94.28,,,94.24,94.275,,94.17,94.15,,,,,,94.12,94.03,,94.115,,,,94.2,94.19,94.3,,94.39,,,,,94.38,,,,94.44,94.455,,,94.38,,,94.51,,,,,,,,94.605,94.565,94.55,94.56,,,94.585,94.595,94.605,94.57,94.49,94.42,94.44,94.455,94.455
2019-05-16,,,,,,95.25,95.395,,,,95.405,,,95.66,95.44,95.27,94.87,94.95,94.9,95.125,,95.215,95.25,,,95.7,,,,,95.6,95.55,95.49,95.47,,,95.44,95.55,95.585,95.57,,95.425,95.335,,,,95.405,95.32,,95.36,95.4,,,95.475,95.515,,,95.4,95.44,,95.655,95.63,,95.53,95.575,95.535,95.57,95.59,,,,,,,95.8,,,,,95.67,95.67,95.53,95.515,,95.61,95.65,,,,,95.735,95.89,95.95,96.045,,,,,,,95.85,95.88,,,,95.93,95.98,95.99,96.045,,,,,,,95.965,95.95,,96.0,,95.98,,,,,,95.93,95.75,,,,,,,95.93,95.94,95.935,95.94,95.955,95.95,,96.01,95.99,,,96.01,96.06,96.04,,96.21,,96.13,,96.12,96.11,,,96.15,,,,96.025,,96.04,,95.99,95.99,96.02,96.07,96.0,95.96,,95.92,95.915,95.9,95.92,95.895,95.935,95.89,95.88,95.89,,95.93,,95.96,,,96.0,95.955,96.0,95.96,,95.97,,,,,,,,,,,95.885,,,,,,95.92,,95.855,,95.7,95.73,95.705,95.7,,95.83,,,95.8,95.83,95.84,,95.785,95.78,,,95.805,95.78,95.75,95.79,,,95.74,,,,,95.755,95.79,,,,95.74,,,,95.71,,95.64,95.62,95.6,95.62,,95.675,95.56,,95.49,95.5,95.49,,95.455,95.46,95.44,,,95.6,95.65,95.63,,95.66,,,,,,,95.64,,95.58,95.59,95.595,95.63,95.62,,,,95.73,,95.67,,,95.76,95.78,95.785,,95.72,,,95.7,95.68,,,95.64,,95.73,,95.825,95.83,95.845,95.81,95.85,95.87,95.92,95.915,95.915,95.825,,95.8,95.81,95.77,,95.64,95.62,95.66,95.64,95.59,95.62,95.62,,,,,95.675,95.725,95.58,95.58,95.61,95.53,95.53,95.525,95.47,95.45,95.455,,95.45,,95.395,95.37,,,95.52,,95.56,95.545,95.6,,95.6,95.55,95.515,95.495,95.445,95.445,95.49,95.47,,95.31,95.325,95.23,95.21,95.07,,95.045,95.055,95.095,95.1,95.05,95.055,95.15,95.18,95.27,95.28,95.34,95.315,95.265,95.22,95.225,95.25
2019-05-17,94.305,,94.425,94.555,,94.415,94.45,94.495,94.49,94.335,94.24,94.2,94.225,94.24,94.345,94.33,,,94.275,,,93.9,,93.95,,,94.185,,94.16,94.21,94.3,94.25,94.24,,,94.045,94.085,94.05,94.0,94.09,94.03,94.06,93.93,93.91,93.755,,,93.8,93.86,93.82,,94.07,,,94.15,,94.055,94.04,94.08,94.06,93.94,93.91,93.92,93.855,93.89,,,93.53,93.54,,,93.385,,93.41,93.465,93.46,93.275,93.305,93.37,93.42,93.51,93.64,93.71,93.695,,93.93,93.99,94.05,,93.925,93.9,,93.93,93.96,93.985,94.02,94.075,94.135,94.24,,,93.91,93.95,94.0,,94.0,94.01,,94.17,94.16,94.25,94.12,,94.1,,94.005,,93.87,93.795,,93.78,93.7,93.69,93.75,93.8,,93.83,93.765,93.775,93.76,93.7,93.675,93.66,93.585,,93.57,93.58,93.6,93.57,93.53,93.545,93.585,,93.57,93.695,,,93.675,93.725,93.76,93.675,93.755,93.75,93.805,93.795,93.75,,,93.69,,93.545,93.51,93.405,93.44,,,93.295,,,93.395,93.395,93.35,,93.43,93.42,,93.32,93.31,93.315,93.185,93.2,93.15,93.09,93.055,93.055,93.1,93.085,93.075,93.115,93.06,93.015,93.1,93.12,93.17,93.09,93.115,93.115,93.08,92.99,93.03,92.985,93.0,93.005,93.01,,,92.985,92.98,,92.865,92.91,92.86,92.9,92.94,,,92.9,,92.915,93.015,,92.96,,,92.93,92.92,92.96,93.045,93.04,93.03,93.005,,93.05,,,93.01,93.045,,93.085,93.13,,,,93.16,,93.245,93.32,93.3,93.32,93.33,,93.275,93.215,93.24,,93.31,,93.345,,,93.44,,,,,93.385,93.35,,,93.48,,,,,93.27,93.3,,93.31,93.29,93.27,,93.125,,93.105,93.06,92.995,93.025,93.03,93.01,93.02,93.05,,,93.02,,93.02,93.0,92.9,,92.905,92.86,,92.93,92.99,93.01,93.03,93.03,93.055,,93.13,,93.045,,93.04,93.09,93.09,,93.115,93.09,93.13,93.125,93.115,93.12,,,93.28,93.31,,,,93.36,93.17,93.075,,93.1,,92.965,92.945,92.88,92.94,92.85,,,92.82,,92.78,92.73,92.775,92.78,,92.82,92.755,92.78,92.835,92.82,,92.795,92.775,92.77,92.84,92.86,92.79,92.685,92.715,92.74,92.78,92.86,92.895,92.925,92.965,92.915,92.81,92.83,92.99,92.965,93.0,92.945,92.97,93.01,92.93,92.91,92.96,93.1,93.13,93.07,93.06,93.23,93.19,93.105,93.02
2019-05-20,,,93.16,,93.32,93.07,,93.14,,93.0,93.17,93.23,93.29,,,,,,93.66,93.45,93.435,93.39,,93.35,93.255,,93.445,,,,93.665,93.74,93.85,93.77,,,93.7,93.765,93.78,93.905,93.87,93.98,94.05,94.22,93.97,,94.17,94.23,,94.09,94.03,94.02,94.13,94.14,94.29,94.295,94.435,,94.3,94.32,94.25,94.22,94.17,94.17,94.205,,,,94.27,,,,,94.385,94.39,94.34,94.31,94.21,94.29,,,94.235,94.35,,94.5,,,94.465,,,94.44,94.435,94.24,94.23,,,,,94.04,,93.93,,,,,94.04,,93.985,93.93,93.805,,93.675,,93.65,,93.63,93.625,93.79,,,93.9,,,93.945,93.87,,93.77,,,93.84,93.93,93.985,,,,93.87,93.83,,,,,93.97,,93.975,93.96,,,,,94.03,94.07,94.07,94.17,,,,,94.04,,,,,94.07,94.065,94.11,,94.08,94.04,94.04,,,94.015,,,,94.07,,,,,,,,93.87,93.97,93.96,94.095,,,94.05,93.935,93.94,,94.03,,,94.07,,,,,93.98,93.97,,93.93,,93.99,,,,93.81,,,93.75,,,,93.74,,,,93.76,,93.68,93.66,,93.75,,,93.74,93.69,93.725,,,,93.675,93.63,,,,,93.565,93.535,,93.57,,93.57,,,93.5,,,,93.57,93.52,93.55,,93.525,93.54,93.54,,,,,,,,,93.435,,,,,,,,,93.41,,,93.43,,93.51,93.51,,,,93.51,,,93.45,,,,,93.52,93.6,,,,,93.54,93.59,,93.56,,,,,,,,,,,,,93.615,93.58,,,,,93.55,,,93.55,93.56,93.56,93.5,93.495,,93.45,,,,93.35,93.39,,93.365,,93.36,93.355,,,93.39,93.425,93.51,,,,,,93.49,,93.425,,93.43,,,,93.48,93.545,93.58,93.635,93.635,93.69,93.69,93.71,93.73,93.69,93.66,,93.63,93.605,93.58,93.62,93.565,93.57,93.54,93.57,93.555,93.53,93.625,,93.65,93.76,93.62,93.59,93.56
2019-05-21,94.2,94.31,94.41,,94.185,94.25,94.13,94.345,,,,94.63,94.77,94.81,94.805,94.65,94.68,,,,95.01,95.03,95.05,95.04,95.06,95.02,95.03,95.08,95.05,95.045,94.99,,95.145,95.205,95.2,95.11,,95.21,,95.005,94.97,95.06,95.09,95.185,,95.11,,95.185,95.05,95.02,,,94.99,94.92,94.88,,95.035,95.03,94.96,94.82,,,,94.925,94.93,,94.92,94.81,94.775,94.72,94.805,94.74,94.72,94.79,94.88,,94.895,95.0,95.015,94.94,,,94.985,94.945,94.96,,94.98,95.09,95.05,,95.145,95.17,,95.015,95.02,,95.135,,94.985,94.97,94.94,,,,94.985,95.11,95.01,95.0,94.965,,95.085,95.01,,,,95.185,95.21,,,95.03,,,,,,,,,,94.86,94.81,,94.89,94.91,,,94.84,94.9,,,94.8,,94.68,,94.62,,94.67,94.67,94.645,94.72,,,94.78,94.74,94.77,94.85,94.8,,,,,94.905,,94.88,94.95,,,94.9,94.89,94.915,,,,95.015,94.97,,,,94.98,94.99,94.965,,,,,,,95.065,,,,,,,95.0,,95.03,95.01,,,95.075,,95.05,,95.06,,,,,95.04,,,95.05,95.07,95.03,95.03,94.97,94.9,94.89,94.89,,,,94.93,94.94,,,,,,,94.86,,94.89,,,94.86,,94.87,,,94.95,,,,,94.93,94.94,,94.96,94.975,,,,,,,,,,,,,,,,94.99,,94.99,,95.0,,,95.07,,,,,,,,,95.15,95.13,95.16,95.18,95.21,95.21,,95.2,,,95.2,,95.225,95.2,95.14,95.2,,,,95.16,95.19,95.205,95.21,95.21,,,,95.26,95.33,95.34,,,,,,95.47,95.545,95.56,,,95.505,95.53,,,95.48,95.465,,95.46,95.46,95.48,95.445,,95.46,,,,,95.52,,,,95.46,,,,,,,95.395,,95.4,95.4,95.37,95.37,,95.47,95.545,95.575,95.605,95.62,95.67,95.63,95.63,95.67,95.73,,95.79,,95.895,95.905,95.865,95.86,95.865,,95.865,95.855,95.89,95.88,95.87,95.875,,95.87,95.86,95.835,95.81,95.785,95.76,95.78
2019-05-22,,95.155,95.34,95.38,94.91,94.92,,,,,94.995,94.975,94.95,,94.97,95.035,,,,94.84,94.915,94.92,94.86,,95.0,94.94,95.1,95.095,95.15,95.31,95.29,95.28,95.265,95.24,,95.23,95.135,95.05,,,94.965,94.93,,94.81,,94.77,94.89,,,,94.65,94.59,94.63,,,94.79,,94.645,94.83,94.8,94.63,,,94.56,94.53,94.47,,,94.18,94.15,94.19,94.135,,,93.955,93.915,,93.97,,,93.86,,93.87,93.85,93.88,,,,,93.63,,,93.47,93.36,93.45,,93.425,93.49,93.51,93.54,93.58,93.55,93.63,93.56,93.52,93.54,,,93.68,,93.61,,93.39,,,,93.305,93.24,,,,,93.41,93.35,93.3,,93.21,93.17,93.13,93.165,93.17,,93.235,93.21,93.245,93.225,,93.21,93.27,93.305,93.365,93.33,93.15,93.13,93.17,93.12,,93.08,,,,92.89,92.84,,92.93,,92.79,,92.845,92.825,92.815,92.815,92.78,,92.76,92.83,,,92.78,,,92.86,,,,92.895,92.86,,,,,92.99,,92.91,,,,,92.92,93.0,,,92.76,,,,92.79,,,,,92.69,,,92.71,,92.935,92.87,,,,,92.815,,,92.65,,,,,,92.625,,,,,,,,,,,,,92.55,92.575,92.63,,,,92.67,,,,,,,,,92.66,92.64,92.82,92.77,92.835,92.82,92.79,,,,,92.81,,92.755,92.73,92.75,92.835,,,,,,,92.78,92.77,92.625,92.68,,92.655,92.62,,,,,,92.59,92.55,92.565,92.525,92.515,92.51,92.57,92.54,92.54,92.595,92.55,92.57,92.65,92.6,92.58,,92.5,,,92.59,92.57,,,,,,,,92.63,,,92.61,92.615,92.68,92.68,,92.67,92.715,92.66,92.57,92.535,,92.525,,92.485,92.425,,92.575,92.52,,,92.65,92.78,,92.78,92.81,,,92.705,92.725,92.71,92.75,92.68,,92.615,92.685,,92.69,92.745,92.82,,92.95,,92.98,,92.84,92.825,92.83,,,,92.75,92.73,92.73,92.725,92.77,,,92.84,92.79,92.81,92.8,92.79,92.8,92.72,92.72,92.81,92.855,92.88,92.93,92.955,92.925,92.96,92.99,93.01,92.97
2019-05-23,90.56,90.14,90.26,89.85,89.83,89.26,,89.41,89.21,89.14,88.57,88.73,,88.03,88.22,88.08,88.14,88.49,88.3,88.625,,88.285,88.41,88.62,,88.415,,88.51,,88.33,88.39,88.365,88.41,88.51,88.68,88.435,88.44,88.5,88.5,88.25,88.235,88.205,88.24,88.045,88.085,88.14,88.145,88.075,88.005,87.84,87.625,87.63,87.59,87.59,87.6,87.535,87.4,87.435,87.29,87.445,87.39,87.44,87.645,87.53,87.78,87.875,,,87.975,87.885,88.02,87.8,87.975,87.83,87.86,87.765,87.96,87.91,87.875,87.95,88.04,87.98,87.955,88.1,88.29,88.185,88.225,88.28,88.18,88.21,,88.11,,88.16,88.305,88.36,88.28,88.365,88.37,,,88.43,88.52,88.53,,88.6,,88.6,88.56,88.57,88.44,88.51,88.55,88.46,88.285,88.34,88.44,88.335,88.17,88.28,88.14,88.03,88.175,88.2,88.12,,,,,88.135,88.05,,88.02,88.125,88.14,88.11,88.11,88.02,88.1,,88.07,88.12,88.13,88.09,,88.0,87.985,88.02,88.03,88.0,88.09,,88.11,88.12,88.305,88.26,88.295,88.26,88.23,88.15,,88.34,,88.31,88.33,88.36,88.28,88.21,88.18,88.13,88.185,,88.115,88.05,88.09,88.1,88.1,88.13,88.1,,,88.13,88.11,88.115,88.115,88.175,88.18,88.11,88.115,88.13,88.08,88.09,88.12,88.14,88.095,88.07,88.1,88.18,88.215,88.23,,,88.35,88.19,88.36,,88.17,88.15,,88.08,88.06,88.065,88.0,88.05,88.0,,,,88.08,,,88.03,88.04,87.94,87.965,87.92,87.87,87.92,87.92,,87.83,,,,,,87.915,,,88.065,,88.04,87.99,,,88.12,,88.16,88.23,88.24,,88.21,,,,88.08,88.085,88.05,88.03,88.085,88.03,88.02,88.035,88.0,87.935,87.89,,87.865,87.94,87.97,88.05,88.05,88.065,,87.93,87.95,,87.965,87.94,87.98,87.98,87.9,87.93,87.9,,87.9,87.95,87.94,,,87.99,88.045,88.14,88.17,88.205,88.17,88.16,88.16,88.17,88.16,88.13,88.08,88.02,,88.105,88.16,88.14,,88.16,88.1,88.1,88.09,88.06,87.96,87.91,87.95,,87.96,,,87.825,87.95,87.96,87.95,88.04,88.08,88.05,88.03,,88.065,,88.08,88.07,,87.95,87.96,,87.955,87.955,87.97,,,87.94,87.89,87.965,,88.055,88.12,88.345,88.31,,88.44,,88.51,88.485,88.43,,88.58,,,88.57,,88.7,88.845,88.9,88.925,89.015,88.95,88.95,88.89,88.85,88.7,88.75,88.62,88.63,88.74,88.76,88.665,88.74,88.75,88.63,88.71,88.71,88.73,88.78,88.82,88.78,88.73,88.72,88.69
2019-05-24,,,,90.0,,,89.615,89.36,89.5,,89.5,,,89.18,89.16,,,89.19,89.01,,,88.81,88.87,88.92,88.9,88.91,89.09,,,89.13,89.15,89.165,89.225,89.24,89.255,89.315,,89.11,,88.95,88.89,89.0,89.035,88.985,88.95,,89.07,89.13,89.09,89.09,88.95,89.11,89.17,89.17,89.105,89.04,89.03,89.1,89.08,89.025,88.96,88.99,88.92,,88.75,88.66,88.53,88.57,,,88.475,88.43,,88.39,88.36,88.365,,88.33,,,,88.02,,,87.96,,87.91,,88.06,88.03,87.95,87.91,87.92,87.955,87.945,87.845,87.75,87.83,87.8,,,87.45,87.29,,87.31,,,,,,87.33,,87.42,87.38,,87.52,87.515,87.52,87.47,87.38,87.36,87.46,87.43,,87.455,,,,87.385,87.385,,87.33,87.44,,87.335,87.33,87.36,,,,,87.25,87.34,,,87.33,,,87.23,87.22,87.175,87.14,87.14,87.155,87.14,,,87.165,87.15,87.14,,,87.11,,,,87.005,86.96,86.96,,86.98,87.0,,87.01,,87.0,,86.96,87.005,87.01,87.0,87.015,87.02,87.23,87.24,87.25,,,,87.36,,87.265,,87.25,87.25,,87.24,87.27,87.26,87.26,,,,,87.21,87.18,87.17,87.17,87.155,87.18,87.27,,87.26,87.25,87.24,,,,87.13,87.17,,87.17,87.165,87.15,,87.15,87.18,87.265,87.17,87.21,87.11,87.08,,87.055,87.105,87.105,87.115,87.1,87.07,87.0,87.05,87.08,,87.04,87.06,,,,,87.085,87.01,,,87.005,,87.0,,,,,,87.015,87.0,87.0,,86.94,,,86.905,87.005,87.0,86.98,87.01,86.99,,86.98,86.97,,86.9,86.94,,86.89,86.81,86.805,86.82,86.75,86.79,,,,86.775,86.75,86.75,86.745,86.725,,,,86.965,86.88,86.89,86.85,,,86.83,86.8,,,86.77,86.75,86.75,86.75,86.745,86.75,86.75,86.765,,,86.92,86.88,86.89,86.9,86.91,,86.87,86.89,86.905,,86.91,86.905,86.97,86.885,,86.96,86.94,86.94,,86.86,,86.875,86.905,86.975,87.005,,87.03,87.04,87.1,87.07,87.075,86.99,86.935,86.975,86.965,86.9,86.87,86.87,86.91,86.875,86.85,86.9,86.97,86.93,86.99,86.955,86.93,86.935,86.92,86.935,86.855,86.91,86.915,86.965,86.995,87.025,87.07,,87.105,87.11,87.23,87.31,87.25,87.235,87.23,87.15,87.175,87.295,87.215,87.16,87.2,87.195
2019-05-28,87.61,87.63,87.86,87.97,87.81,87.77,87.785,87.92,87.785,87.8,87.775,87.71,87.88,87.95,87.7,87.77,87.86,87.91,87.92,88.05,,87.94,,88.015,88.23,,,88.085,,88.16,88.095,88.1,88.14,88.15,87.92,88.07,88.05,,88.14,88.16,87.91,87.79,87.77,87.855,87.89,87.86,87.99,87.87,87.685,87.75,87.745,87.77,87.89,87.8,87.785,87.775,87.705,87.665,87.57,87.6,87.67,87.695,87.66,87.615,87.55,87.44,87.315,87.225,87.25,87.23,,87.21,87.245,87.25,87.26,87.19,87.3,87.405,87.39,87.4,87.42,87.245,87.125,87.04,87.15,87.13,87.175,87.05,87.195,87.155,87.29,87.32,87.53,87.48,87.42,87.48,87.63,87.69,87.715,87.75,87.675,87.63,87.585,87.62,87.77,87.68,,87.68,87.69,,87.72,,,87.71,87.655,87.675,87.61,,87.53,87.41,87.35,87.35,87.27,87.26,87.225,87.34,87.46,,87.49,87.43,87.535,87.57,,87.64,87.59,87.595,,87.58,,,87.4,87.46,87.42,87.33,87.345,87.245,87.26,,87.36,87.37,87.365,87.425,87.415,,87.37,,,87.415,,87.365,,87.355,,87.5,,,,,87.535,87.58,87.66,,87.6,87.61,87.62,87.59,87.65,87.675,,87.61,87.63,87.62,87.57,87.49,,,87.515,,,87.43,,,87.38,,,,87.4,,87.44,87.4,,,,87.42,87.38,87.32,87.35,87.33,,,87.28,,87.425,87.51,87.5,,87.51,,87.555,87.56,,,87.605,87.605,87.57,87.59,,87.72,87.64,87.55,,87.56,87.595,,,,87.53,87.62,,87.59,,87.58,87.56,87.605,87.63,,87.665,87.8,,,87.71,,,,,,87.67,,87.62,87.67,87.74,87.765,87.72,,87.61,87.63,87.635,87.595,87.57,87.69,87.61,,87.545,,87.51,,,87.49,,,87.5,,,87.33,87.405,87.405,87.41,87.41,87.49,,,,87.48,87.45,87.44,87.4,,87.415,,87.43,87.4,87.425,87.41,87.425,87.4,87.33,,87.255,87.28,87.25,87.14,,87.03,87.08,87.03,,87.15,87.15,87.18,87.225,,87.29,,87.305,87.38,,,87.415,,,87.44,,87.375,87.385,87.38,87.41,87.55,87.585,87.5,87.45,87.445,87.445,87.39,87.38,87.43,87.54,,,,87.525,87.455,,87.465,87.47,,87.45,,87.5,87.47,87.44,87.38,87.24,87.28,87.3,87.3,87.28,87.265,87.24,87.29,87.31,87.3,87.315,87.34,87.285,87.23,87.285,87.26,87.275,87.28,,87.36,87.255,87.25,87.26,87.26,87.32,87.26,87.22,87.25,87.24
2019-05-29,,86.02,86.07,86.025,85.65,85.635,85.84,85.97,85.73,85.66,85.575,85.645,85.605,85.605,85.68,85.59,85.55,85.51,85.34,85.29,85.3,,85.315,85.255,85.32,85.43,85.41,85.44,85.44,85.35,85.26,85.2,85.245,85.245,85.275,85.32,,,85.25,85.18,85.34,85.33,85.36,85.51,85.57,,,85.73,85.81,85.69,85.65,85.68,85.705,,85.71,85.695,,85.855,85.87,85.84,85.86,85.85,,,85.68,85.69,85.87,85.825,85.75,,85.83,85.71,85.74,85.78,85.81,85.76,85.77,85.835,85.79,85.82,85.825,,85.64,,85.695,85.69,,,85.71,85.73,85.66,85.67,85.71,85.74,85.7,85.63,85.55,85.62,85.63,85.55,,85.33,,85.39,,,85.04,85.2,85.17,85.14,85.03,84.95,84.825,,84.84,84.825,84.93,,,,84.94,85.05,,84.93,84.97,85.01,85.035,,,84.77,84.73,84.64,,84.41,84.49,84.45,84.525,84.49,84.535,84.56,84.57,84.49,84.41,84.3,,84.31,,,,,84.44,84.48,84.41,84.35,,84.44,84.53,84.55,,,84.66,84.69,84.69,84.77,84.81,,84.89,84.87,,84.9,84.855,84.75,84.7,,84.645,,84.74,84.735,,84.69,,,,84.84,,84.85,,84.77,84.83,84.885,84.95,,,,,84.97,85.075,,,84.9,,,84.87,84.85,84.91,84.92,,84.95,84.9,84.95,84.965,85.01,,,,,,85.29,85.33,85.52,85.6,85.71,,85.56,85.475,85.385,85.41,,85.45,,85.47,,,85.46,85.49,,,,85.66,,85.65,85.79,85.87,,85.84,85.92,,86.0,85.9,,85.91,85.84,,85.77,85.82,85.805,85.755,85.75,85.79,,,,,,,,,85.62,,,85.625,,85.61,85.65,,85.65,,85.75,85.71,85.7,85.63,85.64,85.65,85.53,85.53,85.55,,,,,85.61,85.695,85.73,85.73,,85.7,85.79,85.84,85.84,85.85,,85.76,85.75,,85.8,85.805,,85.87,85.88,85.87,85.825,85.785,85.81,85.84,85.72,85.71,,,,85.755,85.73,85.72,85.71,85.755,,85.75,85.835,85.87,85.95,85.94,85.98,85.91,85.885,85.86,85.895,85.84,85.815,85.825,85.82,85.87,85.87,,85.91,,,86.03,86.0,85.975,86.01,86.1,86.1,86.19,86.24,86.17,86.155,86.18,86.18,86.245,86.15,86.15,86.21,86.17,86.13,86.12,86.23,86.37,86.35,86.35,86.3,86.34,86.36,86.41,86.36,86.405,86.42,86.4,86.35,86.42,86.425,86.55,86.43,86.42,86.425,86.48,86.505,86.55,86.53,86.59,86.54,86.6
2019-05-30,,,86.4,86.36,,86.0,86.07,86.1,85.855,,,85.85,85.945,86.07,85.95,86.0,85.95,,85.97,85.975,85.985,85.89,85.945,86.02,85.87,85.98,86.04,86.13,86.02,86.06,85.83,85.81,85.94,85.91,,85.83,,85.55,85.61,85.62,85.655,85.69,85.8,,85.68,85.735,85.75,85.58,85.45,85.405,,85.39,85.39,85.35,85.37,85.29,85.375,85.35,85.34,85.31,85.33,85.31,85.215,85.23,85.175,85.13,,85.01,85.09,85.075,85.05,84.915,84.94,84.915,,85.03,84.98,84.96,84.95,84.875,84.82,84.785,84.75,84.8,84.895,84.895,85.07,85.215,85.255,85.31,85.16,84.77,84.43,84.24,84.39,84.505,84.415,84.32,84.29,84.355,84.4,84.37,84.55,84.69,84.71,84.7,84.6,84.6,84.43,84.41,84.27,84.22,83.99,,83.975,83.87,83.87,83.98,,83.89,83.87,84.04,84.005,84.015,84.12,84.175,84.225,84.26,84.355,84.315,84.34,84.305,84.305,84.23,84.25,84.185,84.175,84.225,84.18,84.02,83.99,83.985,83.9,83.835,83.83,83.93,83.95,83.99,84.035,84.02,84.115,,84.055,84.03,84.05,84.07,84.06,84.12,84.11,84.075,84.04,83.985,84.04,,84.03,84.17,84.15,,84.31,84.335,84.31,84.325,84.29,84.3,,84.245,84.18,84.19,,84.205,84.16,84.165,84.115,,84.16,84.24,84.25,84.25,84.32,84.355,84.33,84.32,,84.29,84.34,84.37,84.33,84.455,84.45,,84.455,84.47,84.475,84.475,84.47,84.44,84.47,84.45,84.41,84.45,84.445,84.395,,,84.43,84.4,84.37,84.28,84.25,84.22,84.2,84.22,84.22,84.18,84.22,84.23,84.21,84.245,84.23,,84.32,84.365,84.365,84.32,84.365,84.42,84.39,84.395,84.38,84.345,84.4,84.295,84.265,84.235,84.21,84.16,84.125,84.11,84.14,84.12,84.08,84.09,84.17,84.19,84.18,84.16,84.155,84.18,84.14,84.14,84.14,84.205,84.27,84.32,84.33,84.385,84.38,84.34,84.35,84.37,84.34,84.33,84.4,84.44,84.43,84.42,84.38,84.32,,84.26,84.285,84.3,,84.22,84.22,,84.13,84.09,84.115,84.11,84.17,84.195,84.15,84.14,84.085,84.045,84.01,84.1,84.145,84.125,,84.025,84.03,84.03,84.04,,,83.95,83.95,83.95,84.0,84.055,84.01,83.96,83.94,83.92,83.945,84.015,83.97,84.02,84.045,84.06,84.06,84.02,84.075,,84.17,84.21,,84.19,84.12,84.12,84.115,84.12,84.15,84.145,84.15,84.02,83.9,84.02,84.02,84.03,84.05,84.125,84.14,84.1,84.04,84.055,84.035,84.07,84.03,,84.02,83.99,83.995,83.935,83.91,83.965,83.965,84.02,83.95,83.91,84.01,84.0,83.98,83.99,84.08,84.115,84.12,84.075,84.07,84.06,84.07,84.045,84.025,84.04,84.01,84.07,84.05,84.01,84.0,84.01,84.02,84.025,84.0,83.94,83.93,83.92,83.87,83.885
2019-05-31,82.56,82.22,82.31,82.695,82.835,82.79,82.85,82.865,82.795,82.875,82.85,82.95,83.04,82.99,83.05,83.155,83.285,83.36,83.32,83.25,83.18,83.02,,,83.05,82.98,83.09,83.0,83.005,83.22,83.17,83.17,83.13,83.21,83.07,83.09,82.98,83.03,83.09,83.01,83.05,82.96,83.0,82.92,82.85,82.845,83.01,,83.18,83.2,83.26,83.39,,83.47,83.57,83.56,83.47,83.545,83.495,83.55,83.57,83.575,83.52,83.58,83.58,83.56,83.59,83.705,83.82,83.7,83.76,83.655,83.6,83.545,83.435,83.45,83.54,83.43,83.39,,83.525,83.58,83.52,83.64,83.59,83.6,83.45,83.435,83.47,83.45,83.425,83.42,83.39,83.41,83.22,83.09,,83.05,83.105,,83.19,,83.195,83.2,83.11,83.16,83.15,,,83.11,83.125,83.155,83.23,,83.41,,,83.29,83.35,83.44,83.43,83.36,83.435,83.32,83.36,83.375,83.38,83.4,83.32,,83.32,,83.34,83.25,83.265,83.22,83.15,,,83.1,83.13,83.225,83.185,,83.09,83.13,83.16,,83.255,83.33,83.3,83.315,83.25,83.19,,83.08,83.11,83.09,83.11,83.1,83.09,83.09,83.12,83.09,83.07,83.085,83.11,,83.15,,,83.19,83.19,83.09,83.145,83.085,83.06,83.09,83.075,,83.09,83.05,83.05,,83.09,83.055,83.04,,82.995,82.98,82.9,82.905,,,82.91,82.91,,82.93,82.93,82.915,,,82.95,82.91,,82.935,82.89,82.895,82.87,82.855,82.89,,82.94,,82.87,82.91,82.86,82.845,82.795,82.81,,82.92,82.89,82.87,82.85,82.81,,82.84,,,82.79,82.73,82.65,,82.72,82.705,,,82.67,82.71,,,82.71,82.73,82.7,82.715,82.705,82.68,82.69,,,82.57,82.55,82.53,,,82.545,82.53,82.61,,82.54,82.48,,82.49,,82.53,82.57,82.56,,,82.55,82.43,,,82.36,82.33,82.375,,82.35,82.37,82.33,82.31,82.28,,82.25,82.26,82.195,82.275,82.27,,82.22,82.23,82.22,82.255,82.19,82.17,82.09,82.17,82.12,82.16,82.145,82.09,,82.075,82.08,82.11,82.14,82.15,82.12,82.1,82.12,82.13,82.25,82.3,82.28,82.34,82.31,82.3,82.325,82.3,82.35,82.37,82.4,82.49,82.45,82.415,82.46,82.51,82.45,,82.355,82.32,82.345,82.29,82.205,82.2,82.135,82.09,82.065,82.015,82.0,82.0,82.0,82.025,81.98,82.04,82.03,81.985,81.99,81.99,82.04,,82.025,81.96,81.99,81.98,81.99,81.905,81.83,81.98,,81.975,81.96,82.0,81.95,81.965,81.92,81.92,81.885,81.88,81.91,81.9,81.935,81.935,81.935,81.925,81.935,81.945,82.02,82.07,82.05,81.98,81.925,81.95,81.925,81.9,81.92,81.935,81.975,81.92
