,09:30,09:31,09:32,09:33,09:34,09:35,09:36,09:37,09:38,09:39,09:40,09:41,09:42,09:43,09:44,09:45,09:46,09:47,09:48,09:49,09:50,09:51,09:52,09:53,09:54,09:55,09:56,09:57,09:58,09:59,10:00,10:01,10:02,10:03,10:04,10:05,10:06,10:07,10:08,10:09,10:10,10:11,10:12,10:13,10:14,10:15,10:16,10:17,10:18,10:19,10:20,10:21,10:22,10:23,10:24,10:25,10:26,10:27,10:28,10:29,10:30,10:31,10:32,10:33,10:34,10:35,10:36,10:37,10:38,10:39,10:40,10:41,10:42,10:43,10:44,10:45,10:46,10:47,10:48,10:49,10:50,10:51,10:52,10:53,10:54,10:55,10:56,10:57,10:58,10:59,11:00,11:01,11:02,11:03,11:04,11:05,11:06,11:07,11:08,11:09,11:10,11:11,11:12,11:13,11:14,11:15,11:16,11:17,11:18,11:19,11:20,11:21,11:22,11:23,11:24,11:25,11:26,11:27,11:28,11:29,11:30,11:31,11:32,11:33,11:34,11:35,11:36,11:37,11:38,11:39,11:40,11:41,11:42,11:43,11:44,11:45,11:46,11:47,11:48,11:49,11:50,11:51,11:52,11:53,11:54,11:55,11:56,11:57,11:58,11:59,12:00,12:01,12:02,12:03,12:04,12:05,12:06,12:07,12:08,12:09,12:10,12:11,12:12,12:13,12:14,12:15,12:16,12:17,12:18,12:19,12:20,12:21,12:22,12:23,12:24,12:25,12:26,12:27,12:28,12:29,12:30,12:31,12:32,12:33,12:34,12:35,12:36,12:37,12:38,12:39,12:40,12:41,12:42,12:43,12:44,12:45,12:46,12:47,12:48,12:49,12:50,12:51,12:52,12:53,12:54,12:55,12:56,12:57,12:58,12:59,13:00,13:01,13:02,13:03,13:04,13:05,13:06,13:07,13:08,13:09,13:10,13:11,13:12,13:13,13:14,13:15,13:16,13:17,13:18,13:19,13:20,13:21,13:22,13:23,13:24,13:25,13:26,13:27,13:28,13:29,13:30,13:31,13:32,13:33,13:34,13:35,13:36,13:37,13:38,13:39,13:40,13:41,13:42,13:43,13:44,13:45,13:46,13:47,13:48,13:49,13:50,13:51,13:52,13:53,13:54,13:55,13:56,13:57,13:58,13:59,14:00,14:01,14:02,14:03,14:04,14:05,14:06,14:07,14:08,14:09,14:10,14:11,14:12,14:13,14:14,14:15,14:16,14:17,14:18,14:19,14:20,14:21,14:22,14:23,14:24,14:25,14:26,14:27,14:28,14:29,14:30,14:31,14:32,14:33,14:34,14:35,14:36,14:37,14:38,14:39,14:40,14:41,14:42,14:43,14:44,14:45,14:46,14:47,14:48,14:49,14:50,14:51,14:52,14:53,14:54,14:55,14:56,14:57,14:58,14:59,15:00,15:01,15:02,15:03,15:04,15:05,15:06,15:07,15:08,15:09,15:10,15:11,15:12,15:13,15:14,15:15,15:16,15:17,15:18,15:19,15:20,15:21,15:22,15:23,15:24,15:25,15:26,15:27,15:28,15:29,15:30,15:31,15:32,15:33,15:34,15:35,15:36,15:37,15:38,15:39,15:40,15:41,15:42,15:43,15:44,15:45,15:46,15:47,15:48,15:49,15:50,15:51,15:52,15:53,15:54,15:55,15:56,15:57,15:58,15:59
2019-04-01,96.06,96.05,95.76,95.575,95.81,95.83,95.95,96.085,96.02,96.15,96.105,96.12,96.13,95.97,95.94,95.78,95.72,95.76,95.757,95.694,95.79,95.77,95.98,96.17,96.17,95.945,95.94,95.9,95.9,95.81,95.84,96.085,96.11,96.13,96.28,96.43,96.28,96.38,96.25,96.18,96.08,96.05,96.11,96.14,96.13,96.03,96.11,96.06,96.03,96.03,96.08,96.09,96.13,96.095,96.025,96.03,95.99,95.95,95.92,95.99,96.12,96.03,96.06,96.05,96.08,96.07,96.108,96.25,96.37,96.37,96.29,96.2,96.21,96.23,96.23,96.22,96.22,96.3,96.31,96.35,96.38,96.375,96.36,96.34,96.31,96.31,96.41,96.5,96.434,96.44,96.475,96.52,96.61,96.69,96.67,96.62,96.58,96.49,96.4,96.405,96.468,96.55,96.57,96.55,96.51,96.51,96.51,96.55,96.56,96.57,96.45,96.37,96.32,96.29,96.32,96.3,96.37,96.37,96.3,96.37,96.32,96.34,96.21,96.2,96.22,96.28,96.12,96.12,96.12,96.09,96.091,96.07,95.96,95.87,95.91,95.95,95.96,95.97,96.03,96.06,96.041,96.05,96.06,96.14,96.21,96.12,96.16,96.23,96.32,96.31,96.26,96.23,96.24,96.27,96.3,96.259,96.248,96.22,96.2,96.16,96.19,96.21,96.19,96.22,96.209,96.24,96.26,96.28,96.26,96.24,96.221,96.31,96.325,96.34,96.47,96.4,96.4,96.38,96.38,96.42,96.45,96.46,96.46,96.43,96.45,96.49,96.505,96.46,96.43,96.5,96.5,96.49,96.46,96.47,96.49,96.55,96.559,96.56,96.62,96.57,96.549,96.53,96.556,96.59,96.64,96.54,96.53,96.54,96.65,96.675,96.68,96.64,96.67,96.68,96.72,96.69,96.648,96.68,96.69,96.75,96.79,96.76,96.735,96.723,96.76,96.76,96.72,96.69,96.7,96.68,96.62,96.63,96.64,96.69,96.7,96.67,96.7,96.7,96.72,96.74,96.76,96.81,96.79,96.83,96.85,96.87,96.83,96.75,96.73,96.77,96.77,96.84,96.8,96.76,96.78,96.79,96.8,96.84,96.83,96.85,96.88,96.88,96.93,96.95,96.95,96.9,96.9,96.9,96.92,96.88,96.93,96.89,96.86,96.81,96.83,96.86,96.853,96.86,96.87,96.95,96.99,97.0,97.03,97.0,97.02,97.04,97.09,97.08,97.08,97.1,97.04,96.99,96.985,96.96,97.0,96.9,96.8,96.84,96.79,96.81,96.83,96.84,96.87,96.85,96.865,96.92,96.96,96.96,96.98,97.0,96.99,96.916,96.88,96.87,96.86,96.85,96.84,96.81,96.805,96.86,96.85,96.87,96.8,96.79,96.79,96.81,96.86,96.89,96.89,96.88,96.85,96.91,96.92,96.89,96.89,96.84,96.83,96.815,96.81,96.82,96.82,96.76,96.69,96.71,96.75,96.72,96.73,96.81,96.85,96.82,96.82,96.87,96.89,96.88,96.89,96.88,96.75,96.795,96.835,96.795,96.79,96.764,96.76,96.76,96.74,96.72,96.74,96.82,96.82,96.8,96.8,96.84,96.86,96.92,96.96,96.91,96.9,96.85,96.91,96.91,96.91,96.89,96.92,96.94,96.93,96.94,96.98,97.01,97.005,96.95
2019-04-02,97.02,97.21,97.19,97.24,97.16,97.0,97.09,97.16,97.34,97.415,97.29,97.05,97.0,97.08,97.08,97.06,96.92,97.005,96.98,96.92,96.89,96.85,96.79,96.93,96.93,97.013,97.05,97.27,97.27,97.24,97.365,97.485,97.553,97.5,97.43,97.6,97.49,97.475,97.54,97.46,97.4,97.33,97.265,97.265,97.315,97.51,97.38,97.44,97.45,97.54,97.59,97.64,97.65,97.63,97.525,97.47,97.355,97.3,97.37,97.385,97.4,97.41,97.42,97.4,97.43,97.44,97.44,97.325,97.22,97.12,97.02,97.1,97.12,97.14,97.18,97.02,96.92,96.93,96.98,96.92,96.88,96.92,96.86,96.88,96.82,96.807,96.69,96.62,96.65,96.56,96.53,96.45,96.395,96.31,96.36,96.555,96.52,96.49,96.51,96.46,96.48,96.56,96.56,96.4,96.25,96.186,96.18,96.42,96.46,96.36,96.5,96.53,96.56,96.63,96.66,96.57,96.64,96.56,96.53,96.57,96.66,96.61,96.57,96.47,96.62,96.69,96.55,96.52,96.46,96.475,96.52,96.573,96.64,96.66,96.68,96.68,96.63,96.64,96.61,96.57,96.61,96.735,96.72,96.82,96.85,96.87,96.79,96.78,96.81,96.83,96.76,96.79,96.83,96.81,96.85,96.85,96.88,96.87,96.89,96.87,96.785,96.79,96.79,96.74,96.71,96.69,96.63,96.64,96.64,96.625,96.63,96.62,96.625,96.67,96.62,96.62,96.59,96.45,96.41,96.45,96.45,96.44,96.43,96.41,96.41,96.47,96.52,96.51,96.5,96.54,96.5,96.52,96.53,96.51,96.54,96.49,96.44,96.39,96.34,96.395,96.42,96.38,96.37,96.41,96.45,96.48,96.47,96.45,96.48,96.51,96.45,96.46,96.43,96.43,96.4,96.36,96.42,96.49,96.53,96.67,96.6,96.54,96.59,96.57,96.6,96.56,96.55,96.52,96.53,96.58,96.58,96.58,96.6,96.54,96.54,96.54,96.52,96.49,96.47,96.47,96.46,96.45,96.41,96.39,96.39,96.46,96.53,96.52,96.5,96.48,96.49,96.46,96.47,96.41,96.38,96.37,96.37,96.274,96.27,96.24,96.21,96.22,96.24,96.29,96.28,96.376,96.37,96.34,96.32,96.32,96.348,96.35,96.35,96.38,96.45,96.49,96.47,96.48,96.46,96.44,96.43,96.42,96.47,96.4,96.4,96.34,96.34,96.34,96.3,96.285,96.26,96.245,96.15,96.16,96.19,96.21,96.23,96.19,96.23,96.26,96.27,96.27,96.29,96.28,96.26,96.28,96.295,96.265,96.25,96.27,96.295,96.33,96.295,96.33,96.3,96.31,96.34,96.29,96.245,96.21,96.21,96.24,96.17,96.11,96.03,96.01,96.05,96.075,96.12,96.165,96.18,96.19,96.23,96.27,96.26,96.32,96.29,96.28,96.22,96.17,96.2,96.23,96.21,96.22,96.29,96.28,96.23,96.24,96.23,96.28,96.23,96.16,96.155,96.16,96.24,96.17,96.14,96.13,96.05,96.13,96.15,96.19,96.21,96.2,96.23,96.25,96.26,96.275,96.35,96.34,96.33,96.34,96.36,96.32,96.26,96.231,96.28,96.315,96.335,96.3,96.28,96.28,96.25,96.24,96.26,96.21,96.17,96.14,96.14,96.03
2019-04-03,96.26,96.2,96.14,95.941,95.835,95.98,96.227,96.29,96.19,95.98,95.97,95.94,95.955,96.03,96.07,96.01,96.15,96.14,96.01,96.0,96.11,95.97,95.91,95.86,95.9,95.9,95.82,95.82,95.84,95.77,95.598,95.53,95.56,95.4,95.39,95.44,95.4,95.44,95.576,95.65,95.73,95.81,95.85,95.82,95.78,95.83,95.97,96.06,96.07,96.04,96.09,96.04,95.95,96.045,96.02,96.03,95.87,95.85,95.84,95.83,95.45,95.51,95.49,95.495,95.66,95.63,95.49,95.55,95.57,95.625,95.635,95.92,95.95,95.94,95.88,95.865,95.92,95.99,95.94,95.89,95.91,95.97,96.03,96.15,96.09,96.22,96.05,96.05,96.08,96.005,95.97,95.97,96.095,96.21,96.19,96.26,96.13,96.05,96.02,96.0,95.97,95.94,95.78,95.77,95.78,95.73,95.63,95.63,95.64,95.63,95.54,95.49,95.49,95.51,95.46,95.45,95.37,95.27,95.37,95.36,95.37,95.421,95.36,95.42,95.34,95.37,95.28,95.27,95.24,95.24,95.285,95.25,95.2,95.15,95.16,95.19,95.11,95.07,95.14,95.18,95.24,95.3,95.33,95.25,95.26,95.375,95.38,95.45,95.41,95.32,95.37,95.4,95.38,95.42,95.43,95.49,95.4,95.49,95.55,95.55,95.52,95.47,95.339,95.285,95.293,95.33,95.35,95.45,95.39,95.415,95.38,95.36,95.35,95.34,95.42,95.38,95.35,95.35,95.29,95.24,95.275,95.305,95.31,95.23,95.1,95.082,95.135,95.08,95.1,95.12,95.17,95.17,95.09,95.05,94.91,94.82,94.86,94.905,94.86,94.845,94.82,94.859,94.815,94.8,94.76,94.7,94.73,94.73,94.71,94.64,94.58,94.65,94.68,94.74,94.73,94.71,94.73,94.66,94.64,94.68,94.77,94.722,94.68,94.62,94.61,94.57,94.565,94.49,94.51,94.5,94.52,94.52,94.55,94.58,94.57,94.52,94.525,94.558,94.57,94.53,94.53,94.5,94.49,94.53,94.56,94.485,94.5,94.48,94.49,94.475,94.405,94.37,94.311,94.33,94.34,94.37,94.34,94.314,94.35,94.29,94.26,94.26,94.21,94.21,94.22,94.2,94.17,94.0,94.04,94.101,94.13,94.08,94.025,93.91,93.955,93.93,93.96,93.91,93.85,93.91,93.92,93.89,93.85,93.82,93.79,93.79,93.83,93.8,93.81,93.78,93.79,93.86,93.91,93.93,93.98,94.03,94.015,94.07,94.115,94.19,94.17,94.14,94.19,94.19,94.17,94.17,94.168,94.25,94.26,94.22,94.2,94.23,94.21,94.14,94.14,94.17,94.185,94.17,94.18,94.17,94.175,94.25,94.3,94.35,94.368,94.32,94.32,94.32,94.32,94.32,94.28,94.29,94.34,94.335,94.31,94.34,94.34,94.32,94.285,94.23,94.22,94.17,94.13,94.12,94.17,94.12,94.13,94.137,94.2,94.24,94.14,94.09,94.17,94.11,94.11,94.18,94.19,94.27,94.32,94.355,94.34,94.305,94.345,94.328,94.35,94.24,94.28,94.33,94.275,94.29,94.29,94.29,94.32,94.34,94.365,94.355,94.32,94.295,94.27,94.28,94.305,94.27,94.16,93.99,93.99,93.99,93.98,93.88,93.85,93.83
2019-04-04,93.95,93.74,93.63,93.825,94.01,94.04,94.2,94.08,94.255,94.29,94.27,94.24,94.14,94.13,93.98,93.97,93.76,93.77,93.67,93.59,93.58,93.76,93.82,93.94,93.87,93.78,93.62,93.59,93.61,93.57,93.57,93.58,93.575,93.59,93.55,93.52,93.53,93.54,93.49,93.46,93.455,93.45,93.43,93.5,93.41,93.37,93.36,93.46,93.5,93.49,93.49,93.55,93.62,93.59,93.54,93.454,93.445,93.48,93.47,93.25,93.26,93.29,93.23,93.205,93.14,93.03,92.97,93.04,92.99,92.98,92.96,92.935,92.92,92.99,93.0,93.18,93.25,93.19,93.225,93.26,93.29,93.27,93.21,93.18,93.15,93.13,93.03,93.05,93.07,93.02,92.985,93.0,93.0,93.025,93.135,93.14,93.19,93.21,93.22,93.195,93.16,93.26,93.34,93.33,93.33,93.34,93.25,93.2,93.19,93.13,92.97,92.97,93.0,93.045,93.03,93.21,93.27,93.265,93.34,93.31,93.25,93.205,93.185,93.2,93.25,93.275,93.33,93.52,93.58,93.59,93.58,93.56,93.64,93.65,93.57,93.575,93.71,93.67,93.7,93.66,93.6,93.634,93.64,93.64,93.68,93.66,93.67,93.65,93.7,93.7,93.745,93.735,93.705,93.68,93.71,93.66,93.64,93.68,93.62,93.63,93.555,93.535,93.515,93.46,93.35,93.3,93.26,93.21,93.19,93.25,93.35,93.46,93.54,93.58,93.49,93.49,93.43,93.48,93.51,93.505,93.48,93.47,93.49,93.42,93.43,93.45,93.52,93.47,93.46,93.45,93.46,93.42,93.41,93.495,93.545,93.51,93.49,93.47,93.49,93.495,93.56,93.57,93.6,93.61,93.62,93.67,93.65,93.655,93.61,93.57,93.55,93.585,93.5,93.45,93.4,93.44,93.47,93.48,93.48,93.47,93.44,93.44,93.508,93.49,93.44,93.45,93.45,93.475,93.495,93.57,93.54,93.5,93.52,93.56,93.55,93.52,93.52,93.53,93.54,93.53,93.58,93.54,93.64,93.604,93.58,93.61,93.68,93.65,93.66,93.64,93.61,93.61,93.6,93.54,93.57,93.58,93.6,93.63,93.47,93.45,93.44,93.55,93.55,93.61,93.73,93.62,93.59,93.62,93.62,93.61,93.56,93.57,93.6,93.59,93.58,93.58,93.59,93.59,93.63,93.63,93.67,93.61,93.61,93.62,93.66,93.63,93.66,93.635,93.635,93.65,93.62,93.645,93.64,93.63,93.57,93.485,93.5,93.56,93.43,93.44,93.44,93.44,93.56,93.64,93.62,93.64,93.67,93.69,93.695,93.64,93.65,93.62,93.55,93.53,93.47,93.47,93.45,93.43,93.36,93.38,93.3,93.28,93.29,93.38,93.405,93.38,93.39,93.379,93.29,93.29,93.38,93.4,93.37,93.36,93.34,93.36,93.4,93.37,93.31,93.32,93.37,93.46,93.51,93.47,93.39,93.415,93.48,93.49,93.47,93.425,93.485,93.45,93.41,93.39,93.46,93.45,93.44,93.392,93.4,93.37,93.41,93.4,93.405,93.42,93.47,93.46,93.49,93.52,93.54,93.5,93.5,93.53,93.45,93.47,93.465,93.493,93.55,93.62,93.61,93.54,93.55,93.595,93.56,93.6,93.54,93.57,93.575,93.59,93.56,93.54
2019-04-05,93.94,94.25,94.5,94.53,94.56,94.46,94.6,94.58,94.465,94.55,94.46,94.56,94.5,94.498,94.65,94.68,94.8,95.04,95.2,95.23,95.32,95.35,95.31,95.241,95.235,95.13,95.21,95.24,95.37,95.435,95.51,95.48,95.58,95.64,95.66,95.78,95.93,96.025,96.125,96.24,96.13,96.175,96.23,96.245,96.26,96.33,96.315,96.285,96.35,96.395,96.4,96.51,96.505,96.56,96.52,96.55,96.58,96.44,96.355,96.37,96.365,96.38,96.535,96.55,96.55,96.515,96.51,96.65,96.62,96.61,96.54,96.52,96.58,96.57,96.625,96.7,96.76,96.785,96.84,96.83,96.83,96.912,96.915,97.04,97.02,97.061,97.09,96.95,96.91,96.97,96.96,97.05,97.06,97.03,96.915,96.9,96.908,97.0,97.1,97.14,97.11,97.12,97.22,97.34,97.41,97.36,97.365,97.442,97.42,97.39,97.435,97.58,97.555,97.52,97.49,97.34,97.18,97.04,97.03,97.053,97.03,96.92,96.91,96.853,96.72,96.76,96.87,96.94,96.88,96.85,96.865,96.98,97.065,97.025,97.08,97.162,97.11,97.155,97.085,97.08,97.03,97.02,97.065,97.1,97.188,97.205,97.11,97.11,97.09,97.064,97.095,97.15,97.1,97.02,97.045,97.05,97.04,97.05,97.08,97.11,97.13,97.14,97.15,97.15,97.13,97.15,97.195,97.18,97.18,97.18,97.23,97.25,97.14,97.17,97.2,97.27,97.285,97.31,97.33,97.36,97.375,97.39,97.335,97.29,97.339,97.36,97.295,97.26,97.15,97.14,97.145,97.16,97.17,97.2,97.27,97.25,97.39,97.405,97.41,97.41,97.46,97.47,97.558,97.58,97.6,97.6,97.67,97.74,97.74,97.75,97.75,97.829,97.83,97.86,97.85,97.855,97.86,97.86,97.946,97.96,98.0,98.0,98.0,97.97,98.01,97.98,97.96,98.05,98.025,98.09,98.04,98.12,98.17,98.22,98.19,98.158,98.15,98.13,98.15,98.17,98.15,98.15,98.06,98.035,98.05,98.12,98.105,98.11,98.21,98.27,98.31,98.27,98.24,98.235,98.15,98.115,98.125,98.14,98.16,98.185,98.19,98.21,98.2,98.21,98.23,98.225,98.24,98.28,98.31,98.315,98.38,98.38,98.38,98.29,98.425,98.47,98.47,98.3,98.26,98.23,98.23,98.19,98.198,98.29,98.3,98.28,98.42,98.5,98.44,98.37,98.33,98.24,98.25,98.28,98.25,98.22,98.2,98.23,98.32,98.36,98.36,98.37,98.33,98.28,98.3,98.3,98.26,98.245,98.25,98.27,98.34,98.335,98.38,98.36,98.35,98.24,98.22,98.22,98.21,98.18,98.18,98.15,98.2,98.14,98.13,98.14,98.12,98.22,98.28,98.31,98.36,98.36,98.39,98.45,98.475,98.56,98.4,98.36,98.39,98.33,98.37,98.35,98.39,98.4,98.425,98.39,98.42,98.38,98.4,98.39,98.42,98.445,98.41,98.42,98.395,98.39,98.385,98.39,98.44,98.42,98.42,98.44,98.48,98.51,98.53,98.47,98.41,98.42,98.39,98.43,98.48,98.51,98.49,98.4,98.415,98.4,98.45,98.49,98.46,98.43,98.4,98.41,98.42,98.42,98.47,98.52,98.58,98.62,98.615,98.62
2019-04-08,98.97,99.26,99.44,99.71,99.77,99.61,99.75,99.58,99.43,99.37,99.59,99.985,100.04,100.33,100.08,100.29,100.59,100.692,100.85,100.67,100.73,100.7,100.7,100.7,100.55,100.32,100.095,100.12,100.04,100.1,100.055,100.01,100.03,100.07,99.96,99.88,100.082,100.0,99.99,99.93,100.03,99.985,99.95,99.995,100.05,100.09,100.1,100.17,100.37,100.5,100.37,100.28,100.33,100.35,100.33,100.37,100.25,100.19,100.31,100.23,100.135,100.13,100.041,100.1,100.07,100.02,100.17,100.14,100.23,100.27,100.29,100.28,100.29,100.25,100.15,100.08,100.05,100.1,100.11,100.05,100.13,100.186,100.21,100.25,100.224,100.2,100.15,100.14,100.08,100.12,100.17,100.12,99.94,99.95,99.96,99.9,99.94,99.92,99.98,99.8,99.9,99.87,99.74,99.722,99.5,99.56,99.52,99.32,99.26,99.15,99.06,99.09,99.2,99.19,99.15,99.15,99.17,99.19,99.215,99.26,99.285,99.4,99.435,99.5,99.54,99.46,99.39,99.375,99.48,99.41,99.36,99.315,99.36,99.39,99.38,99.38,99.38,99.44,99.43,99.545,99.46,99.41,99.375,99.45,99.43,99.385,99.41,99.37,99.39,99.35,99.345,99.33,99.27,99.27,99.26,99.29,99.32,99.24,99.15,99.16,99.15,99.15,99.14,99.09,99.08,99.151,99.21,99.31,99.345,99.38,99.32,99.33,99.27,99.32,99.31,99.33,99.355,99.41,99.43,99.38,99.35,99.25,99.175,99.16,99.06,99.11,99.21,99.22,99.265,99.32,99.27,99.4,99.43,99.42,99.46,99.51,99.525,99.5,99.495,99.37,99.435,99.45,99.4,99.495,99.47,99.49,99.567,99.59,99.58,99.5,99.46,99.48,99.425,99.42,99.43,99.41,99.39,99.43,99.44,99.42,99.45,99.48,99.47,99.43,99.41,99.28,99.29,99.36,99.37,99.34,99.33,99.3,99.31,99.38,99.36,99.36,99.37,99.4,99.395,99.32,99.275,99.295,99.38,99.339,99.37,99.285,99.285,99.345,99.4,99.4,99.43,99.46,99.41,99.435,99.42,99.425,99.48,99.48,99.43,99.37,99.47,99.36,99.37,99.49,99.513,99.44,99.45,99.44,99.48,99.49,99.48,99.43,99.355,99.38,99.37,99.41,99.28,99.281,99.35,99.32,99.34,99.29,99.3,99.34,99.3,99.28,99.28,99.3,99.29,99.31,99.29,99.29,99.275,99.23,99.245,99.27,99.27,99.27,99.27,99.25,99.26,99.22,99.24,99.3,99.36,99.345,99.36,99.36,99.37,99.36,99.28,99.2,99.26,99.29,99.23,99.24,99.265,99.23,99.27,99.26,99.28,99.335,99.35,99.37,99.42,99.4,99.42,99.38,99.4,99.38,99.32,99.285,99.28,99.31,99.3,99.28,99.28,99.23,99.23,99.29,99.31,99.35,99.34,99.31,99.29,99.25,99.302,99.3,99.345,99.36,99.42,99.43,99.435,99.431,99.38,99.35,99.38,99.39,99.36,99.35,99.295,99.35,99.39,99.408,99.32,99.31,99.38,99.43,99.47,99.4,99.36,99.37,99.37,99.38,99.33,99.297,99.37,99.34,99.36,99.35,99.33,99.39,99.34,99.33,99.34,99.29,99.28,99.23,99.24,99.14
2019-04-09,98.66,98.47,98.4,98.14,97.852,97.71,97.5,97.57,97.55,97.6,97.76,97.68,97.708,97.77,97.87,97.88,98.0,98.0,98.01,98.05,98.08,98.195,98.22,98.13,98.17,98.22,98.15,98.168,98.22,98.09,98.07,98.045,97.9,97.74,97.66,97.67,97.66,97.745,97.67,97.69,97.61,97.75,97.73,97.68,97.58,97.63,97.615,97.625,97.59,97.58,97.55,97.58,97.63,97.63,97.68,97.86,97.98,97.96,97.99,98.0,97.86,97.8,97.76,97.77,97.83,97.84,97.93,98.01,97.929,97.84,97.85,97.72,97.64,97.58,97.61,97.65,97.59,97.62,97.51,97.46,97.39,97.46,97.49,97.473,97.44,97.55,97.57,97.51,97.49,97.658,97.66,97.6,97.57,97.69,97.76,97.67,97.77,97.8,97.71,97.64,97.54,97.55,97.51,97.46,97.54,97.65,97.71,97.74,97.65,97.59,97.61,97.7,97.7,97.67,97.6,97.56,97.65,97.695,97.7,97.72,97.7,97.86,98.02,98.0,97.92,97.93,98.05,98.01,98.01,98.12,98.085,98.08,98.13,98.24,98.19,98.21,98.286,98.28,98.26,98.38,98.38,98.45,98.54,98.56,98.53,98.64,98.6,98.6,98.66,98.64,98.7,98.75,98.75,98.79,98.801,98.83,98.835,98.825,98.87,98.97,98.99,98.99,98.99,99.03,99.13,99.16,99.12,99.13,99.23,99.19,99.23,99.23,99.2,99.19,99.19,99.27,99.31,99.32,99.34,99.275,99.28,99.33,99.3,99.34,99.37,99.38,99.27,99.33,99.34,99.37,99.41,99.43,99.41,99.53,99.48,99.43,99.45,99.42,99.39,99.36,99.25,99.16,99.15,99.11,99.09,99.06,99.03,99.09,99.01,98.95,98.95,98.95,98.955,98.97,98.95,98.935,98.92,98.91,98.98,99.005,99.0,99.04,98.99,98.96,98.96,98.95,98.93,98.97,98.92,98.91,98.885,98.87,98.89,98.83,98.85,98.89,98.83,98.81,98.82,98.81,98.75,98.68,98.67,98.64,98.65,98.64,98.61,98.66,98.68,98.81,98.86,98.92,98.93,98.88,98.88,98.88,98.87,98.92,98.91,98.88,98.83,98.86,98.87,98.85,98.83,98.79,98.86,98.86,98.86,98.87,98.82,98.84,98.81,98.76,98.78,98.77,98.79,98.74,98.71,98.68,98.62,98.61,98.567,98.55,98.59,98.66,98.72,98.72,98.69,98.7,98.69,98.7,98.7,98.69,98.66,98.66,98.68,98.7,98.775,98.75,98.74,98.755,98.72,98.706,98.68,98.66,98.66,98.64,98.68,98.67,98.66,98.63,98.59,98.57,98.57,98.506,98.45,98.41,98.42,98.43,98.51,98.51,98.42,98.44,98.52,98.49,98.487,98.43,98.32,98.37,98.36,98.48,98.49,98.49,98.495,98.48,98.47,98.44,98.45,98.49,98.5,98.495,98.495,98.525,98.53,98.53,98.5,98.45,98.43,98.37,98.281,98.29,98.31,98.315,98.32,98.27,98.23,98.24,98.28,98.35,98.34,98.408,98.43,98.47,98.48,98.52,98.54,98.5,98.49,98.54,98.57,98.58,98.59,98.575,98.54,98.54,98.62,98.65,98.67,98.665,98.65,98.64,98.61,98.62,98.57,98.49,98.49,98.45,98.42,98.455
2019-04-10,99.34,99.24,98.93,99.23,99.6,99.6,99.81,99.89,99.62,99.43,99.425,99.7,99.64,99.63,99.49,99.49,99.65,99.715,99.64,99.7,99.64,99.46,99.47,99.52,99.53,99.43,99.38,99.32,99.47,99.32,99.24,99.26,99.34,99.2,99.21,99.24,99.25,99.1,99.08,99.145,99.07,99.15,99.17,99.22,99.09,99.05,98.99,99.0,98.95,98.97,99.01,99.055,99.06,98.97,98.95,98.9,98.87,98.88,98.87,98.93,98.81,99.045,98.92,98.87,98.91,98.965,98.87,98.8,98.78,98.75,98.8,98.94,98.99,98.86,98.79,98.8,98.75,98.8,98.78,98.75,98.785,98.7,98.75,98.81,98.775,98.79,98.91,98.79,98.77,98.84,98.81,98.85,98.87,98.925,98.93,98.94,98.97,98.97,98.96,98.95,98.92,98.92,98.85,98.795,98.805,98.83,98.87,98.83,98.75,98.75,98.75,98.81,98.78,98.78,98.8,98.94,98.87,98.83,98.77,98.82,98.85,98.915,98.93,98.955,99.01,98.94,98.91,98.88,98.81,98.78,98.81,98.76,98.78,98.81,98.84,98.85,98.9,98.92,98.915,98.87,98.83,98.83,98.82,98.9,98.91,99.0,98.99,99.0,99.025,99.02,99.12,99.14,99.15,99.16,99.16,99.22,99.24,99.26,99.36,99.355,99.36,99.38,99.44,99.34,99.2,99.18,99.22,99.34,99.365,99.4,99.44,99.51,99.5,99.5,99.47,99.5,99.47,99.42,99.37,99.33,99.295,99.23,99.24,99.305,99.29,99.26,99.31,99.38,99.44,99.38,99.37,99.345,99.33,99.35,99.33,99.31,99.3,99.25,99.2,99.22,99.24,99.23,99.257,99.24,99.18,99.21,99.22,99.2,99.17,99.18,99.175,99.14,99.12,99.12,99.07,99.13,99.14,99.11,99.08,99.08,99.185,99.195,99.13,99.1,99.1,99.13,99.1,99.05,99.095,99.14,99.16,99.12,99.04,99.1,99.1,99.1,99.03,98.96,98.92,98.95,98.99,98.95,98.9,98.93,98.94,98.92,98.88,98.84,98.86,98.9,98.89,98.89,98.85,98.89,98.91,98.93,98.86,98.86,98.9,98.87,98.885,98.86,98.84,98.86,98.81,98.81,98.82,98.82,98.82,98.79,98.79,98.805,98.8,98.77,98.75,98.71,98.71,98.74,98.72,98.64,98.71,98.655,98.61,98.61,98.59,98.58,98.6,98.605,98.58,98.45,98.455,98.58,98.47,98.45,98.445,98.49,98.49,98.47,98.46,98.49,98.5,98.505,98.445,98.4,98.46,98.485,98.52,98.57,98.6,98.64,98.68,98.705,98.72,98.725,98.68,98.68,98.7,98.73,98.74,98.715,98.69,98.698,98.685,98.66,98.67,98.68,98.74,98.73,98.7,98.69,98.71,98.756,98.85,98.875,98.93,98.95,98.93,98.93,98.93,98.96,98.85,98.84,98.85,98.85,98.82,98.82,98.81,98.78,98.74,98.638,98.61,98.615,98.63,98.67,98.66,98.675,98.685,98.69,98.78,98.81,98.785,98.8,98.8,98.845,98.81,98.79,98.755,98.7,98.735,98.7,98.72,98.7,98.66,98.6,98.6,98.59,98.59,98.57,98.55,98.555,98.56,98.52,98.47,98.47,98.42,98.41,98.467,98.565,98.59,98.62
2019-04-11,98.29,98.19,98.07,98.0,97.84,98.0,97.925,98.06,98.03,98.05,98.02,97.93,97.9,98.047,98.16,98.29,98.56,98.82,98.89,98.92,98.9,99.03,98.94,98.92,98.95,98.9,98.84,98.925,98.9,99.005,99.13,99.23,99.275,99.31,99.26,99.33,99.19,99.175,99.19,99.13,99.14,99.15,99.14,99.22,99.22,99.34,99.38,99.395,99.41,99.47,99.53,99.66,99.64,99.63,99.63,99.53,99.44,99.39,99.4,99.36,99.36,99.3,99.38,99.395,99.43,99.44,99.37,99.42,99.52,99.51,99.52,99.46,99.44,99.43,99.4,99.42,99.46,99.35,99.22,99.21,99.285,99.25,99.24,99.25,99.1,98.967,98.96,99.02,98.98,98.93,98.83,98.83,98.68,98.59,98.66,98.58,98.53,98.63,98.77,98.84,98.75,98.79,98.82,98.96,99.03,99.09,99.03,99.01,98.825,98.76,98.73,98.73,98.67,98.58,98.57,98.59,98.62,98.6,98.54,98.58,98.5,98.45,98.448,98.445,98.52,98.53,98.39,98.392,98.41,98.32,97.92,97.94,98.0,98.01,98.04,98.14,98.15,98.17,98.18,98.22,98.23,98.08,97.98,97.92,97.96,97.99,98.08,98.1,98.075,98.01,97.93,97.95,97.99,97.98,97.98,97.96,97.99,98.09,98.03,97.99,98.0,98.02,98.04,98.049,98.12,98.115,98.04,98.0,97.995,98.02,97.96,97.93,97.94,98.05,98.04,98.0,97.87,97.79,97.69,97.7,97.735,97.74,97.78,97.77,97.705,97.66,97.73,97.79,97.755,97.83,97.8,97.66,97.67,97.82,97.85,97.97,98.02,98.06,98.08,98.06,98.06,98.17,98.25,98.25,98.31,98.345,98.306,98.355,98.32,98.3,98.39,98.48,98.4,98.39,98.43,98.45,98.41,98.43,98.38,98.411,98.5,98.45,98.43,98.37,98.4,98.39,98.34,98.33,98.47,98.53,98.53,98.59,98.6,98.73,98.88,98.79,98.6,98.52,98.56,98.71,98.68,98.621,98.64,98.7,98.74,98.75,98.68,98.6,98.55,98.56,98.53,98.5,98.486,98.53,98.51,98.57,98.61,98.67,98.71,98.83,98.88,98.84,98.8,98.8,98.81,98.83,98.88,98.83,98.86,98.86,98.82,98.78,98.78,98.8,98.84,98.87,98.84,98.84,98.82,98.9,98.82,98.84,98.88,98.95,98.96,98.97,98.99,98.99,99.02,98.98,98.9,98.83,98.795,98.78,98.841,98.83,98.86,98.86,98.86,98.86,98.88,98.88,98.84,98.83,98.825,98.81,98.77,98.78,98.73,98.72,98.73,98.73,98.68,98.7,98.78,98.76,98.81,98.82,98.82,98.82,98.8,98.8,98.8,98.84,98.8,98.71,98.69,98.727,98.695,98.69,98.65,98.67,98.71,98.72,98.8,98.88,98.9,98.84,98.82,98.84,98.81,98.79,98.81,98.82,98.82,98.83,98.87,98.95,98.91,98.89,98.86,98.84,98.86,98.86,98.84,98.77,98.78,98.75,98.75,98.76,98.76,98.74,98.84,98.84,98.79,98.78,98.79,98.77,98.76,98.77,98.8,98.78,98.73,98.71,98.7,98.71,98.68,98.67,98.69,98.74,98.78,98.81,98.8,98.81,98.86,98.92,98.89,98.88,98.91,98.73
2019-04-12,101.85,102.23,102.18,102.8,102.96,102.93,102.73,102.95,103.02,103.03,103.17,103.54,103.69,103.73,103.73,103.78,103.64,103.708,103.52,103.51,103.52,103.5,103.52,103.595,103.72,103.73,103.78,103.52,103.4,103.33,103.16,103.05,102.78,102.859,102.88,102.83,102.68,102.59,102.62,102.69,102.94,102.99,102.95,102.85,102.87,102.81,102.84,102.738,102.7,102.73,102.74,102.82,102.89,103.15,103.33,103.34,103.32,103.4,103.42,103.37,103.15,103.107,103.25,103.0,103.01,102.95,102.92,102.945,102.95,102.86,102.7,102.62,102.65,102.61,102.64,102.72,102.81,102.69,102.659,102.71,102.8,102.8,102.91,102.89,102.95,102.96,102.855,102.92,102.94,102.86,102.86,102.9,102.91,102.94,102.98,102.94,102.78,102.72,102.8,102.89,102.92,102.91,102.91,102.87,102.8,102.79,102.815,102.82,102.77,102.78,102.79,102.73,102.85,102.87,102.86,102.82,102.88,102.885,102.91,102.91,102.9,102.87,102.86,102.87,102.88,102.915,102.92,102.89,102.92,102.92,102.84,102.84,102.87,102.88,102.93,102.86,102.87,102.91,102.86,102.865,102.97,102.98,103.02,103.17,103.2,103.23,103.28,103.28,103.28,103.35,103.35,103.37,103.34,103.29,103.29,103.31,103.26,103.25,103.35,103.37,103.38,103.29,103.32,103.29,103.24,103.26,103.27,103.345,103.355,103.42,103.41,103.42,103.32,103.21,103.21,103.26,103.27,103.24,103.26,103.295,103.42,103.425,103.45,103.43,103.39,103.37,103.33,103.335,103.42,103.45,103.49,103.64,103.72,103.745,103.82,103.91,103.91,103.91,103.91,104.035,103.98,103.98,104.02,104.02,104.15,104.22,104.28,104.28,104.44,104.47,104.525,104.63,104.71,104.69,104.74,104.67,104.68,104.69,104.56,104.525,104.72,104.645,104.59,104.605,104.66,104.64,104.685,104.65,104.73,104.75,104.75,104.74,104.75,104.74,104.755,104.82,104.83,104.96,104.95,104.97,104.98,105.05,105.08,104.97,104.97,105.03,105.12,105.23,105.23,105.26,105.365,105.44,105.48,105.48,105.49,105.5,105.22,105.14,105.13,105.17,105.286,105.31,105.275,105.32,105.365,105.38,105.45,105.34,105.33,105.505,105.53,105.54,105.62,105.64,105.69,105.73,105.71,105.67,105.69,105.69,105.655,105.66,105.705,105.68,105.73,105.8,105.93,105.98,105.98,105.91,105.8,105.59,105.62,105.68,105.63,105.57,105.56,105.42,105.49,105.47,105.62,105.89,105.82,105.757,105.74,105.81,105.75,105.67,105.57,105.54,105.5,105.38,105.33,105.19,105.12,105.11,105.11,105.12,105.12,105.116,105.06,105.15,104.97,104.99,105.08,105.12,105.09,105.11,105.145,105.26,105.22,105.4,105.54,105.63,105.7,105.7,105.68,105.67,105.845,105.92,105.98,105.99,105.975,106.13,106.28,106.34,106.25,106.25,106.1,106.02,105.88,105.75,105.61,105.74,105.59,105.58,105.53,105.49,105.54,105.66,105.61,105.585,105.514,105.59,105.6,105.61,105.47,105.39,105.43,105.44,105.48,105.45,105.46,105.45,105.39,105.35,105.36,105.375,105.3,105.31,105.29,105.27,105.26,105.19,105.19,105.27,105.36,105.38,105.32,105.27
2019-04-15,104.3,104.0,103.74,103.685,103.485,103.27,103.16,103.25,103.35,103.41,103.35,103.3,102.815,102.7,102.72,102.71,102.806,102.71,102.765,102.83,102.92,102.885,102.81,102.7,102.85,103.05,102.96,103.025,103.51,103.37,103.34,103.415,103.64,103.63,103.6,103.61,103.545,103.49,103.66,103.6,103.47,103.47,103.46,103.42,103.29,103.295,103.52,103.42,103.27,103.28,103.31,103.22,103.27,103.26,103.275,103.25,103.21,103.21,103.11,103.04,102.78,102.66,102.63,102.65,102.66,102.67,102.67,102.7,102.6,102.6,102.5,102.44,102.49,102.37,102.375,102.36,102.47,102.37,102.34,102.37,102.45,102.51,102.493,102.47,102.5,102.51,102.46,102.55,102.52,102.57,102.51,102.42,102.34,102.26,102.3,102.233,102.18,102.125,102.24,102.25,102.34,102.48,102.48,102.415,102.38,102.43,102.26,102.21,102.08,101.98,101.97,102.05,101.98,102.055,102.05,101.93,102.04,101.92,101.95,102.05,102.07,102.24,102.31,102.27,102.26,102.27,102.195,102.2,102.32,102.285,102.37,102.45,102.43,102.35,102.4,102.4,102.47,102.46,102.36,102.25,102.27,102.17,102.23,102.26,102.26,102.195,102.3,102.32,102.305,102.29,102.12,102.14,102.05,102.09,102.13,102.22,102.28,102.22,102.24,102.18,102.21,102.225,102.15,102.12,102.18,102.16,102.15,102.18,102.09,102.105,102.18,102.18,102.205,102.18,102.141,102.11,102.07,102.06,102.04,102.03,102.046,102.05,102.01,101.97,101.985,102.0,102.09,102.13,102.01,102.03,102.115,102.12,102.13,102.1,102.048,102.03,102.11,102.125,102.1,102.12,102.17,102.11,102.11,102.05,102.06,102.07,102.085,102.18,102.14,102.17,102.185,102.24,102.185,102.25,102.28,102.25,102.26,102.26,102.235,102.17,102.13,102.13,102.09,102.1,102.06,102.05,102.05,102.0,102.01,102.03,102.05,102.155,102.14,102.185,102.225,102.24,102.24,102.25,102.27,102.345,102.42,102.37,102.31,102.34,102.29,102.28,102.28,102.32,102.35,102.4,102.37,102.36,102.42,102.43,102.39,102.392,102.4,102.38,102.37,102.4,102.41,102.459,102.4,102.43,102.44,102.41,102.37,102.33,102.34,102.36,102.46,102.48,102.49,102.47,102.53,102.48,102.43,102.42,102.39,102.37,102.38,102.4,102.4,102.38,102.43,102.44,102.46,102.475,102.49,102.43,102.44,102.395,102.29,102.295,102.29,102.23,102.18,102.14,102.15,102.18,102.23,102.118,102.05,102.05,101.965,101.91,101.87,101.8,101.81,101.75,101.66,101.53,101.48,101.48,101.48,101.47,101.485,101.52,101.5,101.44,101.44,101.5,101.59,101.63,101.63,101.615,101.67,101.69,101.74,101.68,101.75,101.67,101.68,101.69,101.68,101.685,101.74,101.715,101.71,101.67,101.66,101.715,101.67,101.56,101.58,101.64,101.67,101.65,101.65,101.64,101.65,101.65,101.66,101.65,101.65,101.65,101.66,101.66,101.62,101.61,101.67,101.68,101.675,101.675,101.74,101.73,101.72,101.73,101.75,101.78,101.77,101.78,101.73,101.72,101.67,101.62,101.68,101.72,101.8,101.9,101.88,101.89,101.89,101.92,101.92,101.925,101.9,101.9,101.88,101.88
2019-04-16,101.86,101.74,101.76,101.82,101.83,101.74,101.6,101.42,101.39,101.31,101.25,101.163,101.21,101.16,101.32,101.39,101.6,101.6,101.47,101.23,101.18,101.03,100.976,101.175,101.24,101.26,101.27,101.19,101.22,101.235,101.24,101.34,101.37,101.43,101.42,101.38,101.365,101.33,101.4,101.44,101.38,101.445,101.54,101.63,101.58,101.51,101.55,101.49,101.45,101.5,101.56,101.61,101.64,101.665,101.66,101.68,101.66,101.72,101.84,101.97,102.06,101.98,101.94,101.89,101.85,101.845,101.96,101.98,101.98,101.935,101.945,101.97,101.99,101.98,101.894,101.82,101.885,101.89,101.85,101.85,101.785,101.77,101.86,101.86,101.835,101.82,101.822,101.78,101.69,101.57,101.6,101.508,101.493,101.51,101.38,101.29,101.35,101.31,101.35,101.33,101.46,101.595,101.57,101.665,101.7,101.83,101.79,101.65,101.54,101.51,101.48,101.513,101.56,101.57,101.51,101.46,101.505,101.545,101.54,101.55,101.57,101.46,101.49,101.56,101.57,101.575,101.61,101.58,101.54,101.52,101.57,101.57,101.59,101.58,101.63,101.59,101.66,101.65,101.66,101.775,101.81,101.84,101.89,101.9,101.9,101.925,101.985,102.03,102.02,101.98,101.98,101.97,101.985,102.0,102.085,102.1,102.12,102.11,102.12,102.09,102.06,102.09,102.058,102.03,102.05,102.08,102.13,102.14,102.14,102.17,102.1,102.091,102.11,101.94,101.91,101.9,101.93,101.96,101.94,101.96,102.0,102.02,102.07,102.11,102.125,102.16,102.165,102.16,102.12,102.04,101.98,101.99,102.014,102.025,102.04,102.09,102.11,102.14,102.12,102.12,102.08,102.05,102.06,101.92,101.96,102.0,102.02,102.04,102.0,101.97,102.01,102.0,102.02,101.97,102.02,102.05,102.07,102.05,102.04,102.03,102.03,102.03,102.0,101.97,101.96,101.98,101.97,102.02,102.005,101.99,102.037,102.049,102.02,102.005,102.02,102.0,101.96,101.92,101.9,101.96,101.98,101.99,102.01,101.94,101.95,101.92,101.9,101.86,101.895,101.91,101.93,101.92,101.9,101.88,101.92,101.86,101.855,101.935,101.94,102.01,102.03,102.03,102.03,102.03,101.96,101.91,101.89,101.9,101.9,101.91,101.9,101.87,101.87,101.9,101.87,101.9,101.975,101.99,102.005,102.03,102.06,102.12,102.135,102.15,102.15,102.15,102.19,102.28,102.315,102.335,102.44,102.455,102.47,102.55,102.612,102.58,102.645,102.68,102.71,102.69,102.71,102.66,102.65,102.7,102.75,102.68,102.6,102.63,102.58,102.58,102.64,102.67,102.63,102.56,102.58,102.57,102.6,102.55,102.51,102.51,102.54,102.52,102.51,102.5,102.56,102.55,102.54,102.53,102.49,102.48,102.43,102.52,102.49,102.49,102.43,102.4,102.435,102.43,102.44,102.46,102.49,102.47,102.45,102.45,102.47,102.46,102.47,102.43,102.36,102.34,102.34,102.36,102.33,102.38,102.415,102.42,102.42,102.39,102.43,102.48,102.505,102.52,102.6,102.54,102.48,102.38,102.42,102.39,102.37,102.3,102.28,102.32,102.31,102.34,102.27,102.27,102.32,102.28,102.32,102.28,102.27,102.245,102.24,102.33,102.33,102.31,102.33,102.32,102.34,102.27
2019-04-17,102.76,103.375,103.42,103.615,103.58,103.49,103.39,103.37,103.43,103.42,103.54,103.47,103.65,103.597,103.84,103.86,103.81,103.69,103.71,103.63,103.64,103.73,103.67,103.61,103.61,103.735,103.82,103.76,103.84,-1.0,103.96,103.93,103.93,104.08,104.24,104.23,104.19,104.165,103.94,103.76,103.74,103.53,103.64,103.62,103.75,103.66,103.73,103.58,103.44,103.426,103.48,103.555,103.61,103.64,103.73,103.78,103.775,103.69,103.705,103.77,103.74,103.82,103.84,103.79,103.86,103.92,103.94,103.73,103.81,103.84,103.82,103.75,103.65,103.61,103.56,103.46,103.56,103.59,103.57,103.54,103.48,103.49,103.42,103.45,103.45,103.44,103.43,103.38,103.35,103.15,103.11,103.09,103.11,103.16,103.18,103.24,103.39,103.49,103.495,103.54,103.47,103.49,103.455,103.33,103.29,103.33,103.41,103.38,103.285,103.27,103.36,103.35,103.34,103.42,103.4,103.38,103.41,103.37,103.355,103.35,103.24,103.2,103.179,103.15,103.09,103.17,103.23,103.22,103.2,103.17,103.16,103.16,103.13,103.17,103.157,103.07,103.06,103.08,103.06,103.08,103.13,102.99,102.98,102.98,103.0,103.04,102.94,102.86,102.82,102.85,102.8,102.77,102.69,102.7,102.63,102.59,102.55,102.74,102.76,102.745,102.68,102.66,102.58,102.61,102.6,102.58,102.56,102.588,102.68,102.71,102.7,102.62,102.56,102.6,102.53,102.56,102.61,102.6,102.65,102.62,102.685,102.67,102.68,102.62,102.6,102.61,102.59,102.605,102.48,102.42,102.32,102.26,102.26,102.29,102.35,102.42,102.5,102.41,102.4,102.46,102.53,102.49,102.495,102.52,102.45,102.5,102.555,102.43,102.435,102.47,102.43,102.44,102.38,102.37,102.38,102.45,102.42,102.38,102.36,102.43,102.45,102.42,102.35,102.37,102.38,102.42,102.44,102.5,102.56,102.61,102.65,102.575,102.61,102.67,102.65,102.61,102.66,102.65,102.74,102.8,102.81,102.81,102.75,102.74,102.81,102.78,102.79,102.78,102.74,102.78,102.78,102.84,102.81,102.77,102.76,102.69,102.65,102.59,102.6,102.52,102.45,102.44,102.43,102.47,102.48,102.525,102.56,102.57,102.55,102.54,102.56,102.52,102.48,102.47,102.49,102.52,102.49,102.56,102.54,102.52,102.42,102.35,102.315,102.27,102.25,102.24,102.29,102.27,102.3,102.31,102.24,102.21,102.21,102.12,102.07,101.98,101.98,102.07,102.03,101.98,102.0,102.03,102.03,102.029,101.94,101.92,101.83,101.8,101.8,101.78,101.77,101.71,101.73,101.765,101.74,101.78,101.8,101.77,101.76,101.75,101.77,101.79,101.82,101.78,101.76,101.72,101.71,101.69,101.66,101.64,101.66,101.68,101.72,101.74,101.8,101.718,101.72,101.78,101.69,101.66,101.55,101.52,101.55,101.53,101.6,101.5,101.46,101.43,101.44,101.55,101.56,101.56,101.58,101.64,101.57,101.55,101.54,101.5,101.55,101.71,101.71,101.63,101.65,101.62,101.63,101.64,101.62,101.7,101.705,101.75,101.795,101.84,101.84,101.83,101.85,101.86,101.83,101.835,101.87,101.96,101.97,101.93,101.89,101.82,101.83,101.78,101.78,101.805,101.81,101.74
2019-04-18,101.9,101.92,101.86,102.18,101.79,101.81,101.585,101.52,101.741,101.69,101.72,101.85,101.87,102.055,102.05,102.065,101.97,101.98,102.03,102.03,102.21,102.15,102.185,102.18,102.03,102.02,102.08,102.175,102.185,102.26,102.21,102.19,102.12,102.125,102.12,102.18,102.19,102.24,102.33,102.34,102.365,102.41,102.36,102.39,102.44,102.45,102.485,102.49,102.5,102.46,102.43,102.41,102.42,102.47,102.45,102.47,102.47,102.5,102.62,102.62,102.61,102.61,102.695,102.68,102.665,102.68,102.7,102.68,102.695,102.77,102.645,102.645,102.66,102.67,102.71,102.71,102.83,102.87,102.89,102.95,102.88,102.87,102.91,102.87,102.88,102.89,102.93,102.96,103.03,103.02,103.07,103.14,103.16,103.15,103.05,103.0,103.02,103.04,103.078,103.17,103.23,103.17,103.19,103.09,103.02,103.02,102.92,102.96,103.01,103.05,102.98,102.99,103.065,103.1,103.08,103.08,103.21,103.17,103.15,103.33,103.43,103.47,103.56,103.6,103.6,103.56,103.6,103.61,103.7,103.68,101.81,103.72,103.66,103.57,103.62,103.56,103.55,103.52,103.6,103.56,103.55,103.56,103.49,103.47,103.47,103.48,103.58,103.66,103.66,103.7,103.71,103.85,103.86,103.97,104.04,103.954,104.04,104.05,104.01,103.9,103.87,103.76,103.73,103.81,103.88,103.84,103.76,103.78,103.72,103.75,103.82,103.76,103.78,103.75,103.75,103.785,103.8,103.78,103.78,103.76,103.76,103.781,103.76,103.765,103.81,103.74,103.71,103.71,103.64,103.67,103.7,103.66,103.66,103.71,103.745,103.75,103.79,103.87,103.898,103.95,103.93,103.94,103.96,104.04,104.06,104.0,103.97,103.98,103.97,103.985,104.04,104.05,104.09,104.1,104.08,104.08,104.133,104.04,104.02,104.07,104.13,104.15,104.15,104.21,104.21,104.19,104.16,104.14,104.16,104.18,104.17,104.13,104.11,104.12,104.18,104.18,104.16,104.14,104.13,104.12,104.13,104.12,104.11,104.167,104.17,104.16,104.21,104.2,104.19,104.23,104.23,104.17,104.2,104.17,104.12,104.09,104.09,104.08,104.0,104.059,104.04,104.07,104.06,104.02,104.0,104.0,104.07,104.08,104.05,104.03,104.11,104.17,104.07,104.04,104.0,103.91,103.89,103.9,103.87,103.89,103.86,103.75,103.73,103.66,103.63,103.67,103.72,103.67,103.66,103.715,103.72,103.73,103.73,103.748,103.8,103.76,103.72,103.73,103.77,103.81,103.86,103.825,103.845,103.85,103.85,103.88,103.92,103.88,103.89,103.89,103.9,103.87,103.84,103.93,103.92,103.928,103.965,103.9,103.9,103.9,103.8,103.74,103.68,103.63,103.644,103.67,103.65,103.65,103.69,103.7,103.68,103.61,103.55,103.45,103.411,103.38,103.32,103.33,103.39,103.6,103.635,103.67,103.76,103.755,103.78,103.84,103.81,103.845,103.83,103.84,103.82,103.95,103.99,103.99,104.0,104.085,104.16,104.04,104.04,104.14,104.07,104.06,104.04,104.02,104.085,104.11,104.085,103.995,104.03,104.07,104.1,104.07,104.05,104.08,104.15,104.11,104.115,104.18,104.24,104.2,104.157,104.04,104.04,104.0,103.98,103.95,103.95,103.92,103.86,103.8
2019-04-22,105.25,105.575,105.18,105.34,105.57,105.6,105.57,105.545,105.59,105.8,105.64,105.6,105.5,105.32,105.17,105.28,105.324,105.38,105.2,104.95,104.9,104.7,104.64,104.72,104.82,104.815,104.891,104.845,104.84,104.8,104.8,104.93,104.997,104.91,104.97,105.03,105.04,105.22,105.2,105.17,105.21,105.19,105.04,105.04,105.09,105.06,104.98,104.98,105.06,105.11,105.19,105.28,105.33,105.34,105.28,105.31,105.36,105.54,105.68,105.74,105.743,105.73,105.678,105.52,105.37,105.33,105.366,105.4,105.42,105.26,105.22,105.19,105.24,105.325,105.25,105.31,105.3,105.365,105.39,105.42,105.58,105.59,105.675,105.8,105.75,105.71,105.77,105.77,105.7,105.7,105.64,105.6,105.5,105.4,105.34,105.34,105.3,105.38,105.48,105.52,105.57,105.62,105.68,105.65,105.68,105.66,105.63,105.61,105.59,105.59,105.68,105.61,105.6,105.65,105.68,105.65,105.72,105.64,105.65,105.71,105.77,105.85,105.776,105.71,105.77,105.85,105.875,105.89,105.85,105.85,105.91,106.03,106.0,106.04,106.08,106.05,106.03,106.07,105.981,106.01,106.01,105.99,106.04,106.03,106.06,106.0,106.02,106.09,106.07,106.21,106.34,106.36,106.36,106.38,106.405,106.38,106.38,106.47,106.53,106.6,106.67,106.627,106.61,106.65,106.71,106.76,106.8,106.8,106.83,106.81,106.74,106.67,106.6,106.59,106.71,106.7,106.68,106.63,106.73,106.75,106.8,106.83,106.83,106.89,106.91,106.87,106.89,106.9,106.915,106.97,106.92,106.83,106.893,106.96,107.03,107.01,106.98,107.05,107.07,107.05,107.115,107.055,106.96,106.98,106.982,106.85,106.83,106.825,106.914,106.91,106.84,106.88,106.95,107.07,107.06,107.065,107.09,107.08,107.07,107.18,107.08,107.08,107.0,106.96,106.97,107.01,107.04,107.09,107.12,107.03,106.93,106.92,106.95,107.02,107.01,107.01,107.07,107.08,107.08,107.08,107.04,107.04,107.03,107.05,107.04,106.98,106.97,107.04,107.11,107.14,107.13,107.18,107.18,107.18,107.22,107.23,107.22,107.2,107.2,107.21,107.27,107.18,107.18,107.18,107.25,107.205,107.079,107.07,107.04,107.0,107.07,106.98,106.95,106.96,106.96,106.99,106.93,106.92,106.89,106.9,106.869,106.87,106.8,106.82,106.83,106.78,106.77,106.79,106.78,106.73,106.72,106.65,106.63,106.59,106.58,106.59,106.58,106.57,106.57,106.63,106.645,106.63,106.65,106.63,106.58,106.48,106.44,106.44,106.33,106.23,106.24,106.285,106.35,106.485,106.53,106.54,106.58,106.54,106.565,106.55,106.52,106.62,106.61,106.64,106.72,106.72,106.73,106.66,106.66,106.725,106.727,106.72,106.76,106.765,106.71,106.63,106.7,106.72,106.69,106.68,106.65,106.62,106.585,106.6,106.61,106.61,106.62,106.605,106.63,106.65,106.64,106.63,106.66,106.71,106.71,106.69,106.69,106.69,106.71,106.71,106.76,106.76,106.8,106.83,106.83,106.86,106.875,106.825,106.805,106.83,106.86,106.855,106.87,106.87,106.85,106.83,106.875,106.87,106.885,106.9,106.92,106.95,106.93,106.96,107.0,106.93,106.83,106.76,106.73,106.85
2019-04-23,106.78,106.5,106.67,106.984,106.92,107.1,107.26,107.227,107.16,106.8,106.7,106.61,106.64,106.73,106.82,106.85,106.94,106.96,106.84,106.79,106.558,106.35,106.42,106.15,106.08,106.1,105.841,105.77,105.89,106.02,106.0,106.035,106.139,106.07,106.03,106.13,106.055,105.985,106.03,105.9,105.89,105.93,105.91,105.855,105.83,105.67,105.65,105.64,105.58,105.4,105.42,105.37,105.63,105.66,105.8,106.0,105.98,106.09,106.2,106.08,106.05,106.12,106.23,106.31,106.34,106.27,106.275,106.325,106.36,106.39,106.44,106.5,106.56,106.55,106.56,106.61,106.61,106.585,106.58,106.51,106.56,106.555,106.49,106.58,106.735,106.72,106.79,106.79,106.813,106.81,106.88,106.939,106.98,107.01,107.09,107.17,107.09,106.96,106.98,107.02,107.07,107.16,107.17,107.23,107.21,107.29,107.16,107.19,107.18,107.23,107.188,107.04,106.92,106.83,106.84,106.96,106.84,106.81,106.78,106.8,106.78,106.8,106.79,106.526,106.54,106.6,106.61,106.55,106.63,106.68,106.7,106.675,106.62,106.6,106.64,106.67,106.665,106.7,106.63,106.56,106.565,106.71,106.78,106.92,106.95,107.06,107.02,106.97,106.99,107.03,107.08,107.05,107.04,107.075,107.05,107.12,107.2,107.27,107.326,107.325,107.32,107.31,107.37,107.37,107.465,107.44,107.48,107.36,107.29,107.34,107.34,107.258,107.315,107.3,107.33,107.355,107.44,107.51,107.44,107.395,107.46,107.38,107.37,107.36,107.25,107.27,107.265,107.35,107.53,107.57,107.54,107.58,107.37,107.42,107.46,107.52,107.58,107.61,107.48,107.51,107.57,107.64,107.7,107.69,107.55,107.58,107.58,107.75,107.71,107.66,107.61,107.57,107.54,107.67,107.66,107.595,107.57,107.61,107.55,107.505,107.5,107.465,107.51,107.515,107.515,107.54,107.54,107.55,107.57,107.57,107.57,107.56,107.5,107.42,107.33,107.25,107.18,107.21,107.31,107.325,107.325,107.25,107.25,107.24,107.315,107.33,107.36,107.39,107.39,107.39,107.385,107.37,107.36,107.35,107.355,107.33,107.325,107.37,107.38,107.42,107.44,107.47,107.47,107.5,107.48,107.53,107.49,107.489,107.51,107.49,107.525,107.5,107.53,107.565,107.58,107.642,107.68,107.68,107.7,107.662,107.73,107.78,107.75,107.8,107.79,107.74,107.68,107.78,107.815,107.78,107.78,107.74,107.684,107.53,107.383,107.405,107.42,107.375,107.443,107.47,107.38,107.32,107.3,107.28,107.29,107.25,107.23,107.21,107.23,107.205,107.21,107.22,107.17,107.2,107.235,107.23,107.24,107.22,107.18,107.16,107.15,107.06,107.03,107.04,107.039,107.01,107.02,107.09,107.12,107.08,106.95,106.9,106.78,106.78,106.775,106.81,106.79,106.79,106.79,106.725,106.73,106.87,106.82,106.82,106.85,106.925,106.92,106.93,106.92,106.83,106.82,106.84,106.86,106.915,106.945,106.91,106.925,106.92,106.9,106.865,106.88,106.88,106.91,106.915,106.91,106.89,106.92,106.95,106.96,106.96,106.92,106.92,106.93,106.92,106.925,106.83,106.76,106.72,106.72,106.84,106.85,106.885,106.835,106.88,106.84,106.835,106.83,106.83,106.75,106.62
2019-04-24,107.14,107.01,106.89,106.93,107.19,106.94,106.955,106.86,106.34,106.4,106.07,106.06,106.185,106.16,105.89,105.83,105.84,105.741,105.9,105.92,105.85,105.75,106.125,106.02,106.07,106.05,106.01,105.81,105.85,105.87,105.75,105.56,105.41,105.32,105.14,105.04,105.02,104.91,104.965,105.02,104.965,104.95,104.84,104.88,105.06,105.19,105.26,105.31,105.35,105.34,105.46,105.52,105.72,105.62,105.69,105.708,105.73,105.77,105.785,105.785,105.84,105.83,105.815,105.825,105.87,105.94,105.93,105.96,105.96,105.88,105.74,105.61,105.48,105.39,105.455,105.54,105.62,105.7,105.83,105.69,105.6,105.55,105.5,105.48,105.49,105.49,105.54,105.48,105.49,105.5,105.47,105.49,105.49,105.5,105.495,105.5,105.495,105.48,105.47,105.49,105.5,105.51,105.52,105.53,105.5,105.47,105.5,105.46,105.49,105.5,105.5,105.5,105.5,105.5,105.52,105.49,105.5,105.51,105.53,105.55,105.7,105.617,105.53,105.5,105.53,105.55,105.7,105.54,105.56,105.55,105.52,105.51,105.55,105.63,105.68,105.68,105.63,105.55,105.52,105.5,105.55,105.55,105.51,105.575,105.55,105.55,105.58,105.61,105.6,105.61,105.625,105.64,105.61,105.55,105.54,105.51,105.52,105.54,105.57,105.59,105.53,105.51,105.51,105.55,105.55,105.54,105.54,105.52,105.52,105.51,105.54,105.5,105.45,105.515,105.62,105.635,105.62,105.6,105.58,105.53,105.5,105.52,105.52,105.55,105.5,105.495,105.37,105.515,105.495,105.48,105.5,105.5,105.48,105.45,105.45,105.47,105.46,105.475,105.48,105.5,105.511,105.47,105.5,105.52,105.545,105.53,105.54,105.52,105.56,105.575,105.77,105.69,105.62,105.61,105.58,105.52,105.5,105.5,105.505,105.49,105.44,105.43,105.45,105.445,105.435,105.44,105.46,105.46,105.47,105.48,105.465,105.49,105.5,105.5,105.49,105.48,105.45,105.46,105.43,105.373,105.21,105.15,105.19,105.21,105.23,105.14,105.1,105.06,105.05,105.015,105.0,105.03,105.01,105.015,105.03,105.0,105.01,105.09,105.09,105.085,105.02,104.99,104.99,104.995,104.98,104.98,104.95,104.98,105.02,104.99,104.98,105.03,105.06,105.11,105.1,105.17,105.2,105.21,105.22,105.25,105.22,105.26,105.255,105.15,105.14,105.14,105.22,105.29,105.242,105.32,105.235,105.14,105.2,105.21,105.22,105.2,105.2,105.2,105.21,105.19,105.2,105.2,105.19,105.17,105.15,105.085,105.04,105.0,105.03,104.99,105.0,104.96,104.93,104.935,104.931,104.935,104.995,105.06,105.035,105.03,105.05,105.05,105.11,105.093,105.105,105.135,105.1,105.08,105.03,105.01,105.06,105.045,105.02,105.0,104.95,104.94,104.93,104.93,104.87,104.82,104.82,104.73,104.73,104.73,104.7,104.7,104.7,104.75,104.74,104.72,104.71,104.71,104.73,104.73,104.74,104.715,104.705,104.728,104.74,104.725,104.75,104.745,104.675,104.64,104.6,104.58,104.58,104.51,104.51,104.45,104.37,104.38,104.36,104.465,104.5,104.505,104.5,104.44,104.395,104.41,104.35,104.29,104.24,104.18,104.18,104.17,104.03,104.0,103.92,103.83
2019-04-25,103.81,103.645,103.65,103.65,103.405,103.57,103.65,103.78,103.86,103.83,103.6,103.58,103.64,103.7,103.825,103.75,103.73,103.68,103.69,103.7,103.755,103.92,103.88,103.86,103.69,103.696,103.79,103.81,103.77,103.8,103.7,103.61,103.56,103.5,103.56,103.52,103.46,103.58,103.44,103.33,103.33,103.32,103.325,103.32,103.11,103.11,103.09,103.11,103.05,103.09,103.16,103.23,103.27,103.37,103.45,103.535,103.59,103.57,103.525,103.55,103.42,103.27,103.25,103.2,103.14,103.11,103.34,103.4,103.47,103.52,103.45,103.4,103.35,103.37,103.39,103.44,103.48,103.5,103.56,103.6,103.665,103.69,103.67,103.65,103.52,103.44,103.37,103.32,103.34,103.35,103.24,103.23,103.26,103.38,103.63,103.66,103.66,103.695,103.69,103.73,103.69,103.76,103.865,103.89,103.81,103.7,103.53,103.58,103.64,103.76,103.755,103.94,103.9,103.94,103.94,103.94,103.85,103.85,103.88,103.85,103.81,103.64,103.58,103.61,103.62,103.78,103.81,103.92,103.92,103.92,103.977,103.89,103.9,103.85,103.82,103.81,103.91,103.89,103.89,103.88,103.88,103.92,103.91,103.91,103.96,103.95,103.94,103.995,104.01,103.98,103.98,104.01,104.04,103.93,103.91,103.94,103.93,103.84,103.82,103.85,103.87,103.83,103.85,103.82,103.83,103.83,103.805,103.76,103.79,103.81,103.73,103.75,103.79,103.78,103.75,103.79,103.74,103.72,103.72,103.61,103.6,103.63,103.65,103.62,103.61,103.626,103.66,103.68,103.66,103.65,103.7,103.7,103.72,103.7,103.63,103.69,103.65,103.655,103.689,103.64,103.6,103.53,103.56,103.55,103.556,103.59,103.61,103.61,103.6,103.611,103.64,103.65,103.63,103.64,103.63,103.56,103.55,103.56,103.61,103.57,103.58,103.62,103.65,103.65,103.62,103.55,103.5,103.48,103.52,103.56,103.56,103.53,103.53,103.55,103.57,103.57,103.54,103.51,103.6,103.64,103.6,103.579,103.64,103.61,103.62,103.66,103.66,103.64,103.65,103.65,103.63,103.59,103.61,103.6,103.53,103.54,103.56,103.55,103.5,103.44,103.43,103.38,103.36,103.33,103.29,103.3,103.31,103.28,103.27,103.21,103.18,103.17,103.14,103.15,103.19,103.2,103.18,103.12,103.05,103.065,103.03,102.96,102.94,103.006,103.0,102.96,102.975,102.97,102.96,103.04,102.85,102.81,102.82,102.82,102.855,102.82,102.8,102.77,102.79,102.805,102.92,102.895,103.0,103.02,103.015,102.9,102.89,102.865,102.86,102.7,102.63,102.65,102.69,102.66,102.6,102.68,102.69,102.735,102.83,102.831,102.85,102.86,102.84,102.83,102.81,102.865,102.83,102.86,102.79,102.79,102.83,102.83,102.8,102.79,102.72,102.74,102.7,102.716,102.71,102.7,102.62,102.62,102.615,102.58,102.51,102.43,102.39,102.28,102.37,102.42,102.44,102.5,102.51,102.575,102.55,102.57,102.66,102.81,102.84,102.935,102.89,102.81,102.81,102.9,102.79,102.74,102.74,102.75,102.75,102.77,102.79,102.74,102.72,102.71,102.79,102.81,102.79,102.76,102.6,102.55,102.53,102.53,102.56,102.565,102.56,102.46,102.23,102.17,102.06,102.02
2019-04-26,101.0,101.39,101.86,101.6,101.62,101.3,101.11,100.84,100.74,100.53,100.32,100.23,100.07,99.89,99.705,99.794,100.04,99.97,100.24,100.27,100.31,100.49,100.64,100.65,100.53,100.46,100.25,100.315,100.46,100.34,100.18,100.21,100.23,100.121,100.06,100.0,99.96,99.76,99.6,99.52,99.47,99.48,99.43,99.35,99.4,99.52,99.45,99.37,99.32,99.18,99.01,99.0,99.05,99.07,99.08,99.11,99.06,98.935,98.85,98.94,98.9,98.86,98.85,98.8,98.88,98.71,98.66,98.65,98.55,98.585,98.61,98.51,98.46,98.45,98.35,98.52,98.59,98.63,98.67,98.67,98.65,98.5,98.38,98.43,98.29,98.12,97.89,97.76,97.77,97.76,97.67,97.67,97.61,97.57,97.62,97.7,97.61,97.57,97.51,97.56,97.55,97.53,97.51,97.59,97.62,97.694,97.88,97.84,97.84,97.88,97.97,97.99,98.03,98.11,98.08,98.0,97.97,97.98,98.05,98.2,98.06,97.98,98.03,97.94,97.93,97.84,97.95,98.02,98.09,98.21,98.18,98.17,98.11,98.12,98.1,98.05,98.05,98.14,98.145,98.185,98.1,97.959,97.86,97.84,97.92,97.87,97.71,97.65,97.72,97.78,97.82,97.89,97.91,97.85,97.86,97.87,97.87,97.84,97.819,97.84,97.82,97.83,97.79,97.73,97.76,97.8,97.758,97.71,97.78,97.8,97.82,97.7,97.71,97.627,97.6,97.52,97.45,97.42,97.43,97.4,97.42,97.427,97.415,97.43,97.4,97.4,97.39,97.41,97.42,97.5,97.515,97.53,97.57,97.53,97.56,97.59,97.625,97.58,97.57,97.58,97.6,97.63,97.54,97.535,97.53,97.54,97.45,97.44,97.44,97.5,97.55,97.64,97.71,97.73,97.69,97.61,97.62,97.61,97.59,97.585,97.71,97.68,97.7,97.62,97.575,97.514,97.48,97.42,97.419,97.37,97.33,97.38,97.39,97.43,97.39,97.43,97.4,97.34,97.38,97.44,97.38,97.45,97.474,97.465,97.49,97.43,97.41,97.39,97.381,97.43,97.35,97.35,97.35,97.5,97.48,97.49,97.48,97.43,97.47,97.48,97.45,97.4,97.38,97.4,97.391,97.435,97.48,97.54,97.535,97.61,97.53,97.56,97.475,97.42,97.44,97.42,97.385,97.36,97.28,97.3,97.23,97.22,97.23,97.13,97.08,97.21,97.33,97.31,97.3,97.33,97.34,97.449,97.53,97.65,97.61,97.52,97.56,97.67,97.675,97.52,97.52,97.557,97.53,97.57,97.54,97.49,97.46,97.38,97.33,97.38,97.46,97.41,97.44,97.44,97.42,97.38,97.39,97.36,97.4,97.41,97.39,97.49,97.535,97.52,97.49,97.48,97.44,97.49,97.52,97.46,97.435,97.45,97.53,97.54,97.58,97.61,97.67,97.68,97.655,97.61,97.58,97.485,97.4,97.33,97.3,97.35,97.35,97.41,97.4,97.44,97.48,97.44,97.45,97.45,97.465,97.44,97.47,97.45,97.39,97.41,97.44,97.46,97.48,97.46,97.47,97.47,97.545,97.59,97.62,97.65,97.69,97.7,97.655,97.575,97.605,97.635,97.605,97.53,97.54,97.63,97.635,97.63,97.64,97.645,97.69,97.82,97.84,97.99,98.09,97.84
2019-04-29,97.85,97.88,97.98,98.0,98.21,97.96,97.96,97.69,97.34,97.45,97.73,97.74,97.87,97.99,97.86,97.855,97.97,98.0,97.96,97.92,97.81,97.72,97.59,97.56,97.48,97.47,97.44,97.33,97.3,97.17,97.18,97.47,97.63,97.69,97.71,97.72,97.75,97.63,97.44,97.38,97.42,97.38,97.37,97.26,97.19,96.95,96.84,96.99,97.05,97.11,97.11,97.03,97.05,97.01,96.98,96.97,96.92,96.85,96.7,96.71,96.83,96.97,97.02,97.08,97.03,97.03,97.11,97.05,97.03,96.96,96.94,96.944,96.99,96.92,96.97,96.98,96.96,96.91,96.91,97.03,97.02,97.0,96.97,96.91,96.87,96.935,96.84,96.85,96.8,96.89,96.81,96.87,96.86,96.89,96.935,96.88,96.83,96.89,96.91,96.93,96.9,96.92,96.92,96.91,96.75,96.78,96.82,96.79,96.865,96.85,96.85,96.87,96.955,96.98,96.93,96.94,97.01,97.16,97.21,97.2,97.24,97.43,97.42,97.56,97.645,97.64,97.61,97.48,97.535,97.63,97.48,97.37,97.4,97.35,97.31,97.28,97.27,97.34,97.34,97.33,97.27,97.35,97.38,97.34,97.33,97.27,97.27,97.25,97.26,97.43,97.43,97.39,97.49,97.53,97.57,97.59,97.6,97.57,97.6,97.68,97.73,97.71,97.61,97.53,97.56,97.6,97.58,97.56,97.62,97.6,97.5,97.58,97.58,97.605,97.56,97.54,97.5,97.5,97.54,97.55,97.56,97.55,97.45,97.43,97.425,97.465,97.48,97.49,97.54,97.49,97.565,97.545,97.56,97.66,97.63,97.58,97.58,97.685,97.78,97.83,97.76,97.65,97.67,97.68,97.64,97.6,97.54,97.575,97.59,97.6,97.59,97.63,97.628,97.57,97.49,97.515,97.51,97.545,97.59,97.61,97.6,97.64,97.54,97.58,97.61,97.62,97.65,97.6,97.6,97.59,97.54,97.57,97.625,97.65,97.63,97.58,97.577,97.56,97.52,97.53,97.57,97.53,97.58,97.565,97.57,97.57,97.5,97.505,97.465,97.46,97.46,97.421,97.48,97.51,97.565,97.56,97.52,97.531,97.58,97.62,97.67,97.67,97.66,97.64,97.66,97.62,97.61,97.61,97.61,97.63,97.62,97.62,97.64,97.67,97.65,97.59,97.58,97.59,97.64,97.612,97.58,97.55,97.5,97.51,97.565,97.55,97.53,97.51,97.4,97.41,97.48,97.47,97.494,97.53,97.5,97.46,97.46,97.465,97.49,97.47,97.45,97.41,97.41,97.52,97.48,97.42,97.412,97.44,97.39,97.328,97.32,97.3,97.29,97.28,97.29,97.3,97.32,97.35,97.32,97.22,97.21,97.205,97.1,97.11,97.07,96.94,96.96,96.93,96.89,96.856,96.89,96.93,96.99,97.005,97.06,97.05,97.03,97.04,97.02,97.05,97.07,97.01,97.02,97.05,97.06,97.075,97.07,96.96,96.98,96.98,96.99,97.01,97.0,96.94,96.88,96.821,96.84,96.84,96.88,96.93,97.0,97.04,97.01,97.02,96.974,97.04,97.08,97.14,97.14,97.14,97.165,97.15,97.14,97.15,97.155,97.12,97.11,97.18,97.205,97.17,97.18,97.11,97.1,97.12,97.125,97.125,97.11,97.08,97.09,96.96
2019-04-30,97.99,98.01,98.01,97.68,97.67,97.41,97.58,97.41,97.32,97.23,97.23,97.13,97.03,96.945,97.0,96.822,96.9,96.87,96.875,96.88,96.78,96.86,96.94,96.86,96.84,96.632,96.58,96.58,96.605,96.54,96.53,96.48,96.51,96.485,96.43,96.36,96.27,96.26,96.29,96.3,96.325,96.28,96.22,96.19,96.1,96.01,95.78,95.67,95.42,95.37,95.23,95.22,95.18,95.5,95.63,95.715,95.87,95.84,95.868,95.85,95.896,95.89,95.98,96.13,96.2,96.18,96.17,96.14,96.12,96.11,96.15,96.15,96.225,95.97,95.94,95.87,95.77,95.63,95.425,95.435,95.565,95.73,95.78,95.78,95.87,95.9,96.01,96.015,96.0,96.12,96.09,96.06,96.076,95.81,95.69,95.69,95.62,95.5,95.31,95.34,95.425,95.42,95.34,95.3,95.31,95.49,95.435,95.4,95.39,95.465,95.61,95.61,95.63,95.72,95.74,95.87,95.905,95.8,95.8,95.86,95.85,95.99,95.87,95.84,95.915,95.9,95.9,95.903,96.045,96.12,96.03,95.935,95.82,95.81,95.76,95.58,95.42,95.46,95.46,95.75,95.8,95.85,95.84,95.77,95.74,95.76,95.7,95.74,95.75,95.735,95.63,95.68,95.66,95.69,95.68,95.665,95.6,95.57,95.63,95.65,95.63,95.67,95.63,95.59,95.56,95.54,95.49,95.5,95.46,95.475,95.5,95.525,95.51,95.46,95.43,95.45,95.5,95.46,95.48,95.52,95.634,95.603,95.6,95.58,95.56,95.54,95.48,95.496,95.48,95.47,95.45,95.44,95.42,95.44,95.45,95.47,95.45,95.41,95.419,95.445,95.43,95.41,95.35,95.3,95.41,95.44,95.43,95.45,95.46,95.495,95.56,95.57,95.52,95.6,95.59,95.59,95.63,95.69,95.69,95.68,95.65,95.681,95.63,95.64,95.58,95.54,95.54,95.53,95.53,95.455,95.46,95.44,95.44,95.4,95.35,95.33,95.32,95.3,95.28,95.28,95.32,95.31,95.34,95.34,95.39,95.4,95.31,95.27,95.27,95.27,95.193,95.12,95.15,95.2,95.145,95.14,95.14,95.17,95.17,95.16,95.15,95.14,95.19,95.175,95.13,95.15,95.07,95.05,95.07,95.07,95.07,95.04,94.97,95.05,95.02,95.01,95.027,95.0,95.025,95.04,95.035,95.05,95.08,95.08,95.1,95.1,95.05,95.0,95.03,95.03,95.01,95.01,95.1,95.07,95.0,95.02,95.13,95.2,95.2,95.235,95.22,95.18,95.12,95.17,95.18,95.17,95.16,95.16,95.24,95.18,95.18,95.13,95.01,95.0,95.14,95.163,95.2,95.23,95.28,95.3,95.42,95.5,95.54,95.548,95.56,95.485,95.49,95.495,95.53,95.55,95.525,95.58,95.58,95.62,95.64,95.62,95.6,95.62,95.62,95.635,95.66,95.65,95.705,95.74,95.73,95.71,95.735,95.755,95.7,95.72,95.757,95.89,95.86,95.87,95.8,95.76,95.75,95.795,95.84,95.86,95.8,95.79,95.8,95.83,95.9,95.9,95.91,95.89,95.915,95.915,95.879,95.88,95.91,95.895,95.895,95.87,95.84,95.81,95.82,95.84,95.82,95.81,95.87,95.9,95.9,95.91,95.89,95.87,95.9,95.93
2019-05-01,95.76,95.91,96.32,95.75,95.763,95.6,95.73,95.67,95.595,95.55,95.34,95.34,95.145,95.29,95.4,95.54,95.65,95.705,95.7,95.57,95.59,95.52,95.39,95.44,95.292,95.334,95.2,95.18,95.16,95.06,94.94,94.92,94.86,94.83,94.74,94.87,94.94,95.05,95.19,95.09,95.14,95.23,95.14,95.04,95.06,95.05,95.0,95.11,95.13,95.16,95.225,95.28,95.23,95.245,95.25,95.23,95.222,95.05,95.0,94.91,94.59,94.6,94.64,94.65,94.64,94.8,94.77,94.84,94.85,94.91,94.7,94.64,94.67,94.705,94.74,94.83,94.75,94.75,94.69,94.67,94.55,94.53,94.54,94.47,94.39,94.31,94.21,94.22,94.25,94.17,94.15,94.09,94.04,94.02,94.07,94.11,94.065,94.1,93.98,93.985,94.04,94.09,94.08,94.03,94.02,93.99,93.88,93.905,93.91,93.99,93.95,93.91,93.89,93.95,93.91,93.98,93.968,93.95,93.968,93.94,93.92,93.95,93.928,93.93,93.93,93.93,93.92,93.93,93.94,93.91,93.98,93.995,94.23,94.22,94.13,94.14,94.15,94.12,93.96,94.01,94.05,94.03,94.03,94.0,94.01,94.02,94.03,93.99,93.96,93.95,93.99,93.96,93.93,93.96,93.99,93.999,93.92,93.87,93.86,93.77,93.69,93.65,93.68,93.57,93.53,93.51,93.59,93.55,93.46,93.44,93.445,93.44,93.56,93.55,93.58,93.6,93.59,93.64,93.62,93.59,93.54,93.48,93.46,93.42,93.41,93.44,93.44,93.381,93.37,93.35,93.37,93.32,93.345,93.32,93.33,93.3,93.29,93.19,93.18,93.18,93.18,93.12,93.08,93.06,93.11,93.18,93.26,93.31,93.37,93.44,93.45,93.43,93.34,93.29,93.46,93.42,93.33,93.29,93.35,93.29,93.4,93.41,93.4,93.31,93.34,93.46,93.46,93.44,93.39,93.44,93.4,93.33,93.19,93.21,93.35,93.375,93.26,93.25,93.25,93.27,93.23,93.21,93.17,93.25,93.25,93.34,93.35,93.34,93.47,93.48,93.51,93.52,93.56,93.56,93.49,93.4,93.41,93.44,93.43,93.52,93.495,93.45,93.5,93.48,93.52,93.52,93.52,93.48,93.49,93.42,93.37,93.42,93.35,93.38,93.42,93.49,93.665,93.65,93.66,93.62,93.49,93.47,93.49,93.58,93.6,93.59,93.58,93.73,93.78,93.739,93.697,93.69,93.722,93.8,93.82,93.83,93.75,93.68,93.7,93.59,93.49,93.49,93.49,93.36,93.395,93.37,93.385,93.35,93.286,93.25,93.13,93.13,93.12,93.12,93.12,93.06,93.06,93.04,93.03,93.1,93.09,93.167,93.18,93.26,93.44,93.46,93.45,93.43,93.44,93.43,93.44,93.46,93.4,93.21,93.25,93.26,93.26,93.3,93.29,93.29,93.29,93.28,93.26,93.22,93.24,93.24,93.24,93.29,93.24,93.26,93.21,93.16,93.15,93.07,92.98,92.965,92.94,92.95,92.96,92.94,92.9,92.85,92.74,92.77,92.765,92.73,92.675,92.67,92.66,92.655,92.59,92.62,92.71,92.7,92.684,92.57,92.585,92.5,92.5,92.53,92.5,92.52,92.54,92.55,92.48,92.34,92.34,92.23,92.2,91.86
2019-05-02,91.0,91.13,90.9,90.92,91.03,91.59,91.73,91.66,91.55,91.87,91.744,91.647,91.55,91.56,91.759,91.77,91.74,91.865,91.83,91.77,91.83,91.8,91.63,91.6,91.545,91.6,91.5,91.335,91.455,91.54,91.47,91.69,91.61,91.6,91.62,91.65,91.57,91.39,91.35,91.34,91.27,91.29,91.16,91.31,91.44,91.395,91.27,91.31,91.35,91.231,91.27,91.49,91.58,91.63,91.62,91.57,91.63,91.49,91.43,91.375,91.25,91.31,91.4,91.39,91.32,91.24,91.19,91.07,90.77,90.8,90.915,90.86,90.91,90.86,90.78,90.79,90.74,90.72,90.61,90.64,90.59,90.68,90.66,90.7,90.62,90.71,90.71,90.6,90.54,90.51,90.46,90.42,90.44,90.45,90.48,90.45,90.45,90.45,90.39,90.365,90.43,90.34,90.42,90.3,90.33,90.33,90.22,90.18,90.05,90.04,89.86,89.86,89.85,89.85,89.91,89.88,89.88,89.87,89.8,89.76,89.775,89.91,89.97,89.91,89.9,89.85,89.95,89.88,89.84,89.84,89.82,89.81,89.65,89.59,89.43,89.44,89.48,89.55,89.641,89.8,89.8,89.66,89.52,89.56,89.48,89.41,89.4,89.29,89.33,89.29,89.45,89.54,89.535,89.54,89.56,89.65,89.76,89.75,89.67,89.675,89.77,89.776,89.76,89.8,89.57,89.6,89.43,89.47,89.52,89.532,89.45,89.51,89.52,89.58,89.54,89.49,89.66,89.71,89.65,89.715,89.81,89.85,89.95,89.81,89.78,89.742,89.745,89.8,89.79,89.79,89.78,89.74,89.79,89.8,89.76,89.75,89.79,89.77,89.76,89.77,89.72,89.6,89.55,89.53,89.59,89.63,89.64,89.59,89.62,89.655,89.69,89.56,89.55,89.44,89.38,89.4,89.45,89.41,89.43,89.44,89.48,89.51,89.58,89.57,89.56,89.59,89.71,89.76,89.75,89.78,89.85,89.922,89.93,89.91,89.94,89.95,89.94,89.873,89.84,89.84,89.91,89.91,89.86,89.85,89.85,89.86,89.82,89.8,89.83,89.785,89.78,89.75,89.71,89.7,89.82,89.847,89.81,89.75,89.73,89.69,89.69,89.73,89.69,89.73,89.64,89.62,89.74,89.75,89.61,89.57,89.6,89.59,89.53,89.5,89.5,89.56,89.58,89.55,89.58,89.63,89.62,89.54,89.57,89.58,89.65,89.57,89.6,89.7,89.68,89.69,89.65,89.61,89.75,89.82,89.87,89.86,89.82,89.65,89.52,89.5,89.66,89.6,89.64,89.57,89.63,89.575,89.59,89.655,89.72,89.68,89.715,89.66,89.68,89.76,89.79,89.74,89.68,89.65,89.6,89.57,89.52,89.56,89.77,89.78,89.68,89.692,89.73,89.76,89.695,89.68,89.72,89.71,89.75,89.76,89.74,89.77,89.7,89.65,89.62,89.59,89.615,89.63,89.6,89.605,89.56,89.515,89.65,89.69,89.71,89.73,89.71,89.68,89.75,89.72,89.785,89.775,89.78,89.75,89.71,89.76,89.77,89.74,89.675,89.6,89.6,89.54,89.55,89.64,89.64,89.71,89.58,89.53,89.605,89.72,89.73,89.69,89.645,89.672,89.77,89.73,89.68,89.61,89.6,89.55,89.54,89.45,89.475,89.5,89.4,89.07
2019-05-03,91.75,92.0,92.0,91.9,91.85,91.73,91.05,91.28,91.12,90.93,91.015,91.09,91.11,91.11,90.99,90.86,90.14,89.725,90.0,90.53,90.48,90.6,90.87,90.79,90.92,90.91,91.03,90.886,90.88,90.945,90.98,90.82,90.85,91.25,91.46,91.67,91.73,91.8,91.75,91.61,91.67,91.74,91.81,91.77,91.63,91.8,91.93,91.98,92.07,92.23,92.13,92.255,92.34,92.3,92.29,92.5,92.54,92.69,92.92,92.847,92.78,92.79,92.81,92.8,92.84,92.83,92.85,92.91,92.91,92.96,92.98,93.0,92.94,92.94,92.99,92.99,92.98,92.98,92.99,92.98,92.91,92.91,92.93,92.99,92.93,92.94,92.96,92.94,92.95,92.98,92.95,92.95,93.03,93.25,93.21,93.2,93.32,93.195,93.19,93.35,93.42,93.145,93.127,93.11,93.05,92.91,92.95,92.74,92.64,92.59,92.479,92.42,92.49,92.6,92.67,92.74,92.77,92.74,92.729,92.74,92.68,92.67,92.77,92.74,92.7,92.7,92.74,92.77,92.75,92.72,92.72,92.73,92.74,92.75,92.78,92.72,92.67,92.6,92.61,92.65,92.64,92.73,92.75,92.63,92.6,92.695,92.64,92.6,92.62,92.6,92.6,92.68,92.68,92.7,92.7,92.75,92.85,92.87,92.89,92.905,92.89,92.87,92.75,92.71,92.71,92.7,92.77,92.74,92.73,92.73,92.77,92.75,92.75,92.77,92.75,92.75,92.73,92.76,92.74,92.73,92.77,92.84,92.85,92.75,92.74,92.72,92.74,92.7,92.76,92.81,92.88,92.922,92.97,93.0,93.01,92.84,92.84,92.91,92.94,93.01,92.99,92.94,92.89,92.935,92.7,92.64,92.61,92.72,92.763,92.74,92.75,92.74,92.78,92.74,92.67,92.63,92.67,92.71,92.675,92.69,92.67,92.67,92.67,92.66,92.66,92.65,92.62,92.55,92.66,92.63,92.66,92.74,92.68,92.63,92.65,92.69,92.62,92.55,92.595,92.61,92.62,92.6,92.53,92.42,92.29,92.23,92.14,92.08,92.06,92.08,92.09,92.17,92.17,92.075,92.001,92.035,92.08,92.08,92.11,92.1,92.09,92.14,92.1,92.1,91.91,91.82,91.83,91.78,91.825,91.81,91.74,91.71,91.69,91.68,91.69,91.74,91.8,91.8,91.8,91.88,91.85,91.91,91.966,92.02,92.02,92.03,92.13,92.135,92.135,92.12,92.135,92.2,92.18,92.09,92.01,91.89,91.93,91.91,91.83,91.85,91.82,91.82,91.76,91.77,91.74,91.78,91.68,91.71,91.67,91.62,91.61,91.63,91.63,91.69,91.71,91.76,91.76,91.765,91.7,91.71,91.74,91.79,91.9,92.02,92.06,92.09,92.06,91.93,91.92,91.84,91.77,91.8,91.7,91.69,91.755,91.757,91.765,91.83,91.85,91.87,91.8,91.72,91.76,91.76,91.69,91.69,91.63,91.695,91.68,91.64,91.66,91.66,91.66,91.67,91.688,91.69,91.75,91.745,91.78,91.62,91.59,91.635,91.58,91.55,91.56,91.6,91.505,91.51,91.49,91.55,91.595,91.61,91.45,91.38,91.43,91.39,91.35,91.22,91.16,91.18,91.28,91.34,91.34,91.255,91.32,91.43,91.51,91.49,91.44,90.81
2019-05-06,89.54,89.77,90.3,90.26,90.14,90.1,90.05,89.96,89.93,90.03,89.94,89.89,89.86,89.79,89.905,89.8,89.94,90.04,90.03,89.95,89.885,89.89,89.93,90.025,90.28,90.44,90.46,90.52,90.68,90.63,90.74,90.61,90.58,90.47,90.515,90.655,90.8,90.93,91.09,91.21,91.19,91.24,91.32,91.3,91.57,91.47,91.476,91.34,91.39,91.4,91.29,91.335,91.33,91.05,91.09,91.11,91.14,91.23,91.12,91.08,90.86,90.86,90.79,90.72,90.67,90.64,90.69,90.67,90.88,90.87,90.865,90.96,90.96,90.76,90.78,90.75,90.78,90.64,90.56,90.4,90.34,90.54,90.53,90.53,90.61,90.55,90.72,90.75,90.91,90.88,90.865,90.85,90.8,90.68,90.59,90.56,90.51,90.47,90.49,90.4,90.43,90.41,90.4,90.515,90.62,90.71,90.846,91.02,90.95,90.92,91.02,90.99,90.91,90.86,90.87,90.88,90.89,90.88,90.96,90.91,90.89,90.91,90.8,90.68,90.63,90.76,90.793,90.92,91.01,91.09,91.06,91.06,91.07,91.0,90.92,90.96,91.13,91.1,91.05,91.0,90.95,90.81,90.8,90.87,90.77,90.75,90.66,90.55,90.51,90.51,90.53,90.53,90.44,90.44,90.48,90.51,90.55,90.57,90.609,90.66,90.64,90.63,90.62,90.65,90.64,90.72,90.72,90.79,90.77,90.76,90.88,90.92,90.89,90.96,90.95,90.97,90.93,90.89,90.85,90.87,90.73,90.65,90.6,90.575,90.57,90.53,90.59,90.54,90.517,90.53,90.6,90.63,90.725,90.68,90.67,90.66,90.64,90.67,90.65,90.63,90.61,90.61,90.61,90.625,90.65,90.69,90.705,90.73,90.76,90.71,90.65,90.654,90.61,90.67,90.66,90.72,90.755,90.77,90.66,90.56,90.6,90.58,90.61,90.65,90.64,90.64,90.73,90.76,90.84,90.795,90.84,90.82,90.84,90.855,90.83,90.89,90.87,90.89,90.905,90.86,90.88,90.89,90.88,90.84,90.84,90.85,90.88,90.9,90.88,90.86,90.89,90.89,90.905,91.0,91.145,91.16,91.185,91.24,91.24,91.28,91.29,91.35,91.37,91.34,91.34,91.355,91.29,91.26,91.22,91.21,91.19,91.12,91.135,91.17,91.19,91.16,91.18,91.225,91.215,91.23,91.17,91.17,91.225,91.18,91.175,91.17,91.19,91.12,91.13,91.09,91.07,91.12,91.11,91.09,91.09,91.125,91.16,91.22,91.16,91.205,91.22,91.28,91.26,91.15,91.15,91.17,91.15,91.17,91.19,91.195,91.3,91.301,91.315,91.41,91.39,91.4,91.42,91.42,91.43,91.55,91.59,91.598,91.605,91.56,91.56,91.59,91.6,91.62,91.61,91.57,91.57,91.64,91.675,91.75,91.73,91.72,91.8,91.725,91.71,91.64,91.62,91.6,91.59,91.56,91.46,91.46,91.5,91.54,91.555,91.58,91.62,91.65,91.655,91.64,91.68,91.77,91.78,91.78,91.79,91.74,91.62,91.62,91.5,91.47,91.46,91.53,91.445,91.45,91.42,91.38,91.37,91.25,91.22,91.22,91.22,91.21,91.1,91.12,91.14,91.19,91.24,91.36,91.44,91.39,91.32,91.28,91.28,91.29,91.3,91.23
2019-05-07,89.81,89.85,89.84,89.84,89.84,89.82,89.855,89.925,90.56,90.59,90.29,90.26,90.49,90.55,90.33,90.39,90.35,90.26,90.13,89.9,89.75,89.7,89.81,90.21,90.24,90.33,90.49,90.67,90.57,90.61,90.63,90.48,90.42,90.58,90.61,90.73,90.59,90.64,90.74,90.69,90.7,90.77,90.87,90.96,91.02,91.05,90.89,90.91,90.935,91.03,91.052,91.19,91.17,91.18,91.15,91.16,91.19,91.2,91.25,91.26,91.24,91.085,91.05,90.89,90.58,90.44,90.34,90.43,90.59,90.61,90.64,90.87,90.94,90.88,90.87,90.85,90.87,90.7,90.72,90.53,90.53,90.52,90.52,90.58,90.555,90.56,90.42,90.48,90.575,90.55,90.6,90.56,90.45,90.37,90.43,90.415,90.425,90.42,90.44,90.55,90.52,90.65,90.6,90.52,90.7,90.65,90.68,90.67,90.66,90.66,90.57,90.58,90.58,90.59,90.62,90.55,90.66,90.73,90.81,90.84,91.04,90.99,91.11,90.96,90.88,90.75,90.74,90.59,90.58,90.66,90.76,90.76,90.8,90.78,90.75,90.83,90.85,90.83,90.875,90.84,90.63,90.64,90.67,90.71,90.7,90.7,90.6,90.56,90.5,90.42,90.4,90.47,90.445,90.43,90.495,90.63,90.64,90.78,90.77,90.72,90.81,90.82,90.825,90.78,90.71,90.69,90.74,90.73,90.73,90.7,90.76,90.73,90.734,90.75,90.713,90.74,90.7,90.7,90.71,90.87,90.86,90.88,90.92,90.89,90.84,90.86,90.88,90.89,90.93,90.91,90.855,90.869,90.88,90.9,90.87,90.88,90.91,90.92,90.91,90.92,90.89,90.9,90.96,90.82,90.8,90.7,90.675,90.6,90.61,90.7,90.7,90.7,90.66,90.58,90.6,90.54,90.47,90.49,90.41,90.38,90.28,90.37,90.425,90.468,90.5,90.46,90.46,90.472,90.48,90.41,90.35,90.31,90.36,90.31,90.33,90.38,90.44,90.39,90.33,90.35,90.18,90.24,90.2,90.286,90.42,90.45,90.42,90.27,90.29,90.34,90.28,90.205,90.24,90.19,90.17,90.24,90.28,90.308,90.36,90.42,90.5,90.49,90.565,90.56,90.57,90.495,90.52,90.54,90.53,90.505,90.5,90.56,90.6,90.54,90.57,90.68,90.72,90.76,90.73,90.76,90.75,90.737,90.77,90.81,90.75,90.77,90.68,90.66,90.64,90.69,90.63,90.73,90.72,90.655,90.56,90.61,90.6,90.565,90.5,90.52,90.56,90.47,90.42,90.45,90.39,90.515,90.56,90.62,90.67,90.68,90.69,90.75,90.67,90.62,90.6,90.61,90.61,90.625,90.6,90.586,90.61,90.68,90.67,90.716,90.805,90.96,90.98,90.97,91.03,91.005,91.03,91.01,90.955,90.87,90.91,90.92,90.84,90.86,90.95,91.06,91.09,91.15,91.23,91.29,91.25,91.23,91.16,91.21,91.24,91.12,91.18,91.15,91.095,91.095,91.02,91.06,91.03,91.03,91.035,91.04,91.03,91.04,91.05,91.04,91.0,91.0,91.01,90.99,90.965,91.03,91.065,91.16,91.18,91.305,91.345,91.44,91.41,91.41,91.48,91.42,91.4,91.48,91.54,91.57,91.67,91.66,91.68,91.64,91.67,91.66
2019-05-08,91.52,91.53,91.758,91.95,92.132,92.29,92.5,92.707,92.61,92.6,92.68,92.73,92.81,92.64,92.7,92.92,93.18,93.28,93.38,93.35,93.101,93.195,93.37,93.61,93.3,93.2,93.043,93.01,93.05,93.19,93.37,93.435,93.28,93.14,93.34,93.4,93.41,93.54,93.52,93.615,93.38,93.37,93.44,93.34,93.32,93.42,93.4,93.36,93.31,93.28,93.34,93.425,93.4,93.55,93.63,93.63,93.61,93.55,93.49,93.35,93.39,93.61,93.34,93.35,93.35,93.33,93.35,93.408,93.49,93.42,93.57,93.53,93.55,93.56,93.63,93.64,93.64,93.72,93.78,93.77,93.73,93.74,93.75,93.6,93.57,93.56,93.54,93.51,93.55,93.64,93.9,94.04,94.05,94.16,94.26,94.32,94.49,94.49,94.54,94.38,94.37,94.17,94.16,94.25,94.47,94.47,94.44,94.31,94.28,94.32,94.25,94.24,94.18,94.13,94.03,94.0,94.0,93.94,93.92,93.93,93.95,93.97,94.0,93.75,93.87,93.96,93.93,93.82,93.8,93.75,93.72,93.68,93.73,93.7,93.72,93.79,93.85,93.84,93.88,93.92,93.92,93.89,93.91,93.91,93.91,93.98,93.99,94.07,94.07,94.01,93.97,93.9,93.85,93.73,93.77,93.84,93.895,93.842,93.847,93.73,93.69,93.7,93.68,93.65,93.67,93.69,93.71,93.75,93.78,93.7,93.63,93.71,93.72,93.81,93.79,93.79,93.8,93.83,93.84,93.835,93.7,93.67,93.68,93.65,93.64,93.59,93.65,93.67,93.57,93.52,93.56,93.53,93.48,93.49,93.52,93.56,93.58,93.605,93.64,93.74,93.77,93.78,93.74,93.7,93.65,93.65,93.67,93.73,93.75,93.76,93.73,93.73,93.72,93.78,93.79,93.71,93.71,93.75,93.77,93.76,93.78,93.77,93.74,93.74,93.74,93.71,93.65,93.65,93.62,93.63,93.64,93.71,93.74,93.8,93.765,93.72,93.79,93.78,93.745,93.69,93.67,93.655,93.71,93.725,93.8,93.74,93.68,93.76,93.79,93.78,93.81,93.76,93.77,93.81,93.8,93.8,93.82,93.7,93.72,93.75,93.76,93.78,93.78,93.74,93.72,93.71,93.71,93.78,93.77,93.785,93.77,93.69,93.68,93.72,93.71,93.68,93.68,93.685,93.74,93.79,93.73,93.75,93.7,93.65,93.665,93.65,93.66,93.72,93.65,93.66,93.67,93.68,93.72,93.76,93.83,93.91,93.96,94.005,94.025,94.04,94.105,94.12,94.12,94.16,94.215,94.225,94.185,94.13,94.19,94.19,94.275,94.24,94.18,94.17,94.228,94.18,94.14,94.13,94.12,94.135,94.16,94.13,94.14,94.19,94.25,94.25,94.145,94.12,94.16,94.17,94.22,94.195,94.18,94.15,94.07,94.1,94.09,94.2,94.12,94.1,94.16,94.2,94.205,94.205,94.22,94.14,94.085,94.125,94.17,94.27,94.34,94.355,94.34,94.26,94.25,94.32,94.36,94.4,94.42,94.33,94.37,94.38,94.35,94.405,94.364,94.37,94.42,94.36,94.32,94.34,94.38,94.3,94.24,94.26,94.265,94.265,94.22,94.16,94.25,94.27,94.13,94.1,94.21,94.2,94.16,94.05,94.06,94.095,94.105,94.0
2019-05-09,92.14,92.24,92.74,92.781,92.74,92.78,92.72,92.65,92.91,93.15,93.12,93.17,93.0,92.74,92.66,92.52,92.52,92.5,92.53,92.47,92.32,92.06,92.12,92.23,92.31,92.32,92.36,92.38,92.44,92.63,92.73,92.643,92.62,92.57,92.73,92.82,92.73,92.87,92.87,92.94,92.845,92.88,92.86,92.83,92.84,92.81,92.72,92.64,92.56,92.465,92.4,92.65,92.58,92.7,92.72,92.685,92.685,92.77,92.79,92.91,93.01,93.02,93.0,93.02,92.92,92.91,92.92,92.82,92.7,92.7,92.76,92.75,92.89,93.11,93.17,93.22,93.28,93.38,93.41,93.36,93.355,93.4,93.35,93.36,93.37,93.365,93.37,93.37,93.36,93.3,93.375,93.475,93.44,93.465,93.51,93.54,93.55,93.44,93.475,93.564,93.62,93.743,93.66,93.73,93.85,93.75,93.59,93.53,93.52,93.53,93.52,93.455,93.37,93.22,93.25,93.33,93.2,93.1,93.14,93.12,93.25,93.2,93.31,93.39,93.445,93.45,93.48,93.44,93.45,93.57,93.66,93.54,93.5,93.61,93.71,93.74,93.69,93.67,93.74,93.76,93.83,93.75,93.71,93.66,93.71,93.79,93.84,93.77,93.7,93.76,93.87,93.87,93.89,93.79,93.8,93.82,93.81,93.86,93.91,93.92,93.91,93.94,93.948,93.96,93.97,93.9,93.93,94.01,94.13,94.14,94.02,93.95,93.995,94.01,93.97,93.97,94.17,94.13,94.23,94.29,94.34,94.36,94.49,94.518,94.53,94.52,94.66,94.69,94.6,94.74,94.76,94.87,94.57,94.54,94.646,94.67,94.63,94.605,94.52,94.54,94.5,94.5,94.53,94.68,94.7,94.72,94.75,94.75,94.72,94.83,94.92,94.98,95.035,95.04,94.99,94.98,94.81,94.8,94.761,94.77,94.77,94.61,94.64,94.72,94.77,94.69,94.63,94.55,94.49,94.49,94.46,94.47,94.517,94.5,94.47,94.55,94.59,94.55,94.58,94.62,94.64,94.65,94.66,94.64,94.63,94.655,94.67,94.59,94.58,94.58,94.61,94.62,94.67,94.67,94.61,94.6,94.55,94.55,94.545,94.68,94.72,94.68,94.695,94.64,94.6,94.655,94.63,94.69,94.66,94.66,94.7,94.78,94.63,94.515,94.55,94.61,94.73,94.71,94.64,94.7,94.72,94.79,94.71,94.75,94.78,94.78,94.75,94.75,94.71,94.68,94.67,94.7,94.66,94.68,94.7,94.61,94.51,94.44,94.42,94.438,94.4,94.43,94.51,94.51,94.38,94.38,94.37,94.335,94.38,94.42,94.4,94.44,94.425,94.42,94.38,94.33,94.32,94.32,94.26,94.24,94.262,94.31,94.3,94.36,94.34,94.34,94.28,94.22,94.18,94.13,94.07,94.07,94.09,94.1,94.16,94.16,94.11,94.007,93.92,93.87,93.855,93.93,93.92,94.01,93.95,93.99,94.0,93.98,93.98,94.0,94.02,94.08,94.07,94.1,94.16,94.14,94.13,94.13,94.15,94.16,94.22,94.27,94.3,94.335,94.34,94.295,94.27,94.24,94.36,94.33,94.325,94.253,94.23,94.25,94.296,94.28,94.28,94.3,94.3,94.2,94.21,94.32,94.31,94.29,94.3,94.33,94.34,94.3,94.29,94.24
2019-05-10,94.01,93.66,93.6,93.85,93.95,93.9,94.04,93.99,94.105,94.2,94.16,94.09,94.01,93.85,93.78,93.835,93.91,94.02,94.04,93.75,93.66,93.52,93.501,93.7,93.62,93.62,93.69,93.63,93.68,93.62,93.59,93.5,93.54,93.57,93.49,93.406,93.28,93.31,93.32,93.39,93.4,93.37,93.45,93.32,93.3,93.04,92.905,92.89,92.902,92.861,92.83,92.862,92.905,92.83,92.825,92.893,93.07,93.125,93.09,93.065,93.1,93.03,93.05,92.965,93.0,92.97,92.91,92.91,92.76,92.72,92.73,92.5,92.7,92.74,92.81,92.81,93.0,93.01,93.04,92.92,92.98,92.99,93.1,93.155,93.11,93.031,93.1,93.145,93.22,93.17,93.18,93.17,93.07,93.06,93.09,93.16,93.23,93.27,93.14,93.05,93.05,93.04,93.02,93.1,93.15,93.115,93.12,93.26,93.29,93.335,93.475,93.54,93.615,93.55,93.54,93.54,93.52,93.61,93.62,93.54,93.39,93.39,93.39,93.42,93.39,93.39,93.41,93.45,93.54,93.56,93.51,93.57,93.36,93.22,93.32,93.4,93.35,93.35,93.34,93.27,93.27,93.35,93.55,93.475,93.36,93.54,93.52,93.52,93.59,93.6,93.67,93.69,93.66,93.64,93.65,93.62,93.58,93.49,93.5,93.555,93.53,93.54,93.66,93.79,93.693,93.73,93.76,93.76,93.77,93.81,93.79,93.81,93.83,93.85,93.86,93.87,93.88,93.93,94.02,94.07,94.09,94.09,94.11,94.18,94.285,94.31,94.28,94.25,94.16,94.21,94.18,94.06,94.07,94.095,94.14,94.16,94.1,94.13,94.14,94.05,94.11,94.11,94.18,94.23,94.29,94.32,94.2,94.24,94.22,94.26,94.26,94.3,94.43,94.39,94.42,94.36,94.3,94.37,94.34,94.38,94.41,94.35,94.37,94.33,94.24,94.27,94.14,94.215,94.28,94.36,94.39,94.46,94.5,94.4,94.35,94.45,94.48,94.455,94.48,94.43,94.46,94.51,94.519,94.55,94.51,94.55,94.545,94.48,94.47,94.52,94.54,94.56,94.48,94.47,94.46,94.52,94.58,94.55,94.52,94.65,94.59,94.6,94.57,94.61,94.58,94.5,94.5,94.49,94.49,94.56,94.52,94.52,94.58,94.6,94.58,94.59,94.6,94.68,94.68,94.67,94.67,94.68,94.65,94.58,94.51,94.38,94.41,94.41,94.35,94.24,94.24,94.2,94.08,94.06,94.05,94.01,94.0,94.16,94.19,94.18,94.16,94.155,94.19,94.24,94.24,94.23,94.22,94.26,94.32,94.38,94.415,94.387,94.35,94.38,94.38,94.35,94.35,94.37,94.395,94.41,94.42,94.41,94.46,94.543,94.495,94.5,94.52,94.52,94.575,94.59,94.58,94.62,94.73,94.65,94.7,94.76,94.76,94.71,94.67,94.69,94.74,94.73,94.75,94.725,94.735,94.804,94.83,94.88,94.96,95.06,95.1,95.0,95.02,95.1,95.085,95.06,95.18,95.11,95.18,95.14,95.1,94.96,94.97,94.91,94.82,94.69,94.715,94.76,94.69,94.67,94.68,94.651,94.65,94.61,94.6,94.6,94.65,94.7,94.62,94.57,94.64,94.68,94.69,94.75,94.76,94.75,94.74,94.85,94.85,94.94
2019-05-13,93.94,94.17,93.73,93.86,94.11,94.32,94.4,94.514,94.4,94.51,94.43,94.555,94.58,94.52,94.48,94.5,94.53,94.59,94.78,94.67,94.33,94.36,94.39,94.25,94.28,94.22,94.308,94.22,94.26,94.27,94.308,94.1,94.08,94.0,93.99,94.05,93.95,93.95,93.905,93.815,93.59,93.53,93.6,93.7,93.7,93.731,93.825,93.91,94.15,94.135,93.96,93.85,93.84,94.0,94.007,94.04,94.04,94.005,94.08,94.13,94.19,94.21,94.29,94.27,94.29,94.41,94.51,94.39,94.38,94.61,94.86,94.9,95.075,95.2,95.185,95.12,95.16,95.05,94.89,94.74,94.7,94.85,94.83,94.76,94.63,94.69,94.68,94.66,94.67,94.81,94.94,94.66,94.53,94.54,94.38,94.465,94.433,94.55,94.58,94.495,94.42,94.41,94.44,94.42,94.24,94.17,94.05,93.92,94.0,94.005,94.08,94.135,94.07,94.09,94.084,94.01,93.96,93.895,93.855,93.93,94.05,93.968,93.98,93.9,93.98,93.95,93.945,93.79,93.78,93.762,93.66,93.68,93.79,93.83,93.81,93.85,93.91,93.8,93.748,93.8,93.76,93.66,93.68,93.57,93.54,93.59,93.59,93.655,93.66,93.715,93.75,93.76,93.84,93.78,93.76,93.77,93.78,93.77,93.66,93.625,93.63,93.67,93.63,93.65,93.59,93.545,93.57,93.55,93.73,93.766,93.74,93.73,93.81,93.78,93.695,93.8,93.84,93.78,93.81,93.8,93.62,93.595,93.67,93.67,93.68,93.64,93.765,93.815,93.91,93.99,93.925,93.88,93.81,93.79,93.805,93.9,93.9,93.95,93.96,93.95,93.975,94.04,94.05,93.99,93.98,93.828,93.737,93.74,93.91,93.9,93.81,93.72,93.7,93.66,93.79,93.74,93.71,93.71,93.625,93.545,93.5,93.63,93.66,93.75,93.673,93.64,93.62,93.62,93.7,93.76,93.69,93.7,93.72,93.74,93.735,93.76,93.79,93.72,93.68,93.63,93.61,93.805,93.83,93.7,93.7,93.74,93.81,93.78,93.79,93.9,93.81,93.76,93.74,93.69,93.66,93.62,93.63,93.54,93.55,93.64,93.611,93.6,93.6,93.59,93.55,93.64,93.62,93.57,93.6,93.63,93.6,93.69,93.68,93.763,93.74,93.82,93.825,93.85,93.83,93.83,93.72,93.71,93.628,93.67,93.605,93.545,93.49,93.56,93.62,93.56,93.54,93.62,93.54,93.54,93.55,93.67,93.79,93.87,93.83,93.77,93.8,93.78,93.8,93.69,93.68,93.65,93.608,93.62,93.68,93.7,93.61,93.715,93.67,93.5,93.47,93.6,93.59,93.74,93.75,93.75,93.79,93.7,93.77,93.78,93.81,93.81,93.84,93.88,93.94,93.83,93.81,93.83,93.75,93.66,93.69,93.62,93.64,93.63,93.67,93.61,93.6,93.65,93.57,93.47,93.41,93.4,93.47,93.47,93.42,93.34,93.3,93.32,93.26,93.285,93.32,93.3,93.233,93.21,93.28,93.28,93.26,93.3,93.28,93.27,93.36,93.35,93.32,93.31,93.315,93.315,93.31,93.34,93.28,93.345,93.31,93.335,93.34,93.38,93.44,93.43,93.42,93.43,93.4,93.35,93.32,93.395,93.435,93.49,93.52,93.46
2019-05-14,93.92,94.06,94.29,94.344,94.475,94.28,94.423,94.51,94.43,94.44,94.295,94.39,94.41,94.36,94.44,94.49,94.445,94.45,94.51,94.24,94.08,94.08,94.0,94.08,94.03,94.03,94.28,94.328,94.34,94.35,94.36,94.525,94.63,94.5,94.48,94.5,94.49,94.62,94.63,94.65,94.585,94.61,94.61,94.45,94.43,94.47,94.56,94.645,94.63,94.8,94.84,94.875,94.86,94.87,94.848,94.79,94.812,94.86,94.91,94.99,94.97,94.92,94.975,95.08,94.99,95.015,95.04,95.0,95.03,95.075,95.08,95.06,95.05,95.035,95.018,95.04,95.06,95.02,94.97,94.97,94.9,94.9,94.85,94.8,94.695,94.66,94.69,94.6,94.54,94.578,94.575,94.59,94.54,94.42,94.42,94.57,94.72,94.82,94.74,94.63,94.62,94.62,94.72,94.69,94.735,94.73,94.75,94.775,94.87,94.92,94.96,94.865,94.77,94.745,94.82,94.86,94.86,94.79,94.77,94.77,94.795,94.79,94.855,94.78,94.765,94.88,94.98,94.95,94.9,94.78,94.81,94.89,94.96,94.84,94.8,94.79,94.836,94.87,94.91,95.005,94.92,94.94,95.03,95.06,95.095,95.15,95.2,95.13,95.06,95.06,95.06,95.05,95.075,95.14,95.19,95.24,95.235,95.18,95.12,95.1,95.11,95.05,95.05,95.07,95.09,94.98,94.935,95.02,94.905,94.91,94.88,94.86,94.9,94.91,94.72,94.73,94.79,94.8,94.794,94.78,94.82,94.85,94.82,94.93,94.95,94.96,94.92,94.921,95.01,95.01,95.0,95.03,95.06,95.06,94.94,94.97,94.98,95.007,95.03,95.09,95.06,95.04,95.06,95.07,95.126,95.11,95.05,95.1,95.057,95.04,95.05,95.04,95.0,95.01,95.01,95.0,94.98,95.07,95.095,95.05,95.065,95.13,95.159,95.206,95.21,95.24,95.215,95.185,95.19,95.17,95.14,95.09,95.09,95.18,95.17,95.18,95.175,95.16,95.165,95.18,95.17,95.165,95.16,95.11,95.1,95.12,95.11,95.11,95.06,95.02,95.03,94.99,94.86,94.88,94.91,94.88,94.865,94.88,94.841,94.83,94.88,94.88,94.89,94.93,-1.0,94.94,94.97,94.95,94.94,94.91,94.9,94.91,94.81,94.795,94.774,94.78,94.73,94.68,94.68,94.7,94.74,94.78,94.81,94.82,94.83,94.787,94.78,94.83,94.78,94.77,94.76,94.72,94.715,94.73,94.76,94.78,94.72,94.65,94.672,94.655,94.62,94.59,94.59,94.61,94.63,94.6,94.58,94.56,94.583,94.59,94.62,94.595,94.55,94.56,94.57,94.53,94.46,94.39,94.38,94.33,94.3,94.26,94.239,94.3,94.22,94.23,94.315,94.32,94.32,94.34,94.325,94.34,94.355,94.4,94.46,94.41,94.41,94.41,94.42,94.46,94.44,94.42,94.43,94.39,94.3,94.35,94.28,94.29,94.32,94.34,94.365,94.32,94.31,94.28,94.27,94.29,94.33,94.41,94.42,94.438,94.26,94.3,94.31,94.22,94.16,94.17,94.13,94.12,94.15,94.16,94.16,94.12,94.145,94.19,94.24,94.08,94.1,94.17,94.26,94.27,94.26,94.24,94.22,94.18,94.22,94.33,94.22,94.22,94.26,94.21
2019-05-15,93.39,93.63,93.44,93.19,93.34,93.6,93.4,93.75,93.54,93.74,93.67,93.64,93.6,93.65,93.53,93.57,93.71,93.72,93.83,93.8,93.73,93.64,93.59,93.51,93.725,93.74,93.64,93.6,93.495,93.55,93.55,93.52,93.41,93.37,93.36,93.26,93.25,93.29,93.34,93.26,93.37,93.38,93.18,93.17,93.485,93.75,93.6,93.56,93.54,93.58,93.54,93.47,93.5,93.47,93.49,93.52,93.66,93.65,93.58,93.61,93.44,93.64,93.68,93.76,93.75,93.61,93.56,93.62,93.7,93.71,93.77,93.73,93.735,93.8,93.85,93.875,93.93,93.98,93.92,93.93,93.95,94.05,94.09,94.07,94.01,94.07,93.9,93.88,93.93,93.895,93.81,93.72,93.65,93.61,93.64,93.61,93.68,93.725,93.77,93.76,93.8,93.89,93.85,93.98,94.015,94.01,94.05,94.0,93.945,93.99,94.07,94.005,93.97,94.07,94.11,94.185,94.29,94.29,94.308,94.32,94.33,94.13,94.14,94.22,94.27,94.19,94.14,94.11,94.145,94.16,94.23,94.24,94.26,94.28,94.34,94.21,94.2,94.2,94.22,94.25,94.25,94.25,94.2,94.27,94.28,94.27,94.27,94.29,94.36,94.39,94.45,94.47,94.51,94.5,94.51,94.49,94.5,94.47,94.45,94.54,94.46,94.45,94.455,94.44,94.46,94.42,94.38,94.38,94.4,94.35,94.36,94.4,94.39,94.35,94.3,94.3,94.23,94.31,94.42,94.39,94.42,94.4,94.42,94.43,94.46,94.36,94.33,94.3,94.29,94.31,94.25,94.23,94.22,94.21,94.21,94.25,94.18,94.14,94.19,94.2,94.25,94.23,94.22,94.235,94.33,94.415,94.34,94.31,94.29,94.21,94.25,94.26,94.29,94.32,94.35,94.34,94.31,94.31,94.33,94.29,94.305,94.24,94.24,94.24,94.18,94.18,94.18,94.2,94.17,94.18,94.14,94.14,94.12,94.105,94.037,94.083,94.11,94.061,94.12,94.16,94.14,94.195,94.215,94.24,94.26,94.25,94.255,94.325,94.34,94.341,94.37,94.31,94.33,94.32,94.25,94.2,94.185,94.16,94.16,94.18,94.15,94.16,94.17,94.2,94.19,94.22,94.19,94.18,94.155,94.19,94.17,94.175,94.13,94.15,94.18,94.198,94.18,94.19,94.23,94.24,94.275,94.19,94.17,94.14,94.112,94.123,94.205,94.26,94.2,94.19,94.19,94.225,94.3,94.32,94.36,94.32,94.32,94.28,94.262,94.265,94.24,94.216,94.205,94.23,94.259,94.26,94.2,94.155,94.12,94.15,94.175,94.195,94.185,94.196,94.3,94.36,94.34,94.33,94.35,94.34,94.37,94.36,94.36,94.305,94.24,94.19,94.2,94.2,94.205,94.19,94.23,94.25,94.21,94.13,94.13,94.11,94.11,94.11,94.07,94.07,94.075,94.03,94.09,94.107,94.094,94.12,94.12,94.14,94.16,94.27,94.328,94.34,94.29,94.295,94.36,94.35,94.346,94.36,94.35,94.37,94.445,94.36,94.39,94.36,94.36,94.445,94.41,94.43,94.455,94.47,94.47,94.51,94.52,94.56,94.552,94.57,94.55,94.5,94.53,94.53,94.54,94.56,94.59,94.58,94.55,94.45,94.42,94.43,94.43,94.34
2019-05-16,95.0,95.255,95.237,95.35,95.298,95.16,95.28,95.18,95.04,95.3,95.405,95.48,95.5,95.41,95.09,94.9,94.79,94.85,94.86,95.05,95.005,95.06,95.22,95.37,95.47,95.65,95.62,95.64,95.58,95.52,95.47,95.51,95.47,95.46,95.54,95.47,95.41,95.46,95.55,95.51,95.42,95.36,95.31,95.31,95.34,95.44,95.37,95.32,95.39,95.33,95.36,95.35,95.33,95.36,95.45,95.51,95.4,95.34,95.37,95.55,95.58,95.62,95.45,95.44,95.505,95.53,95.535,95.59,95.63,95.69,95.71,95.689,-1.0,95.78,95.6,95.56,95.56,95.65,95.6,95.64,95.61,95.48,95.49,95.54,95.59,95.58,95.57,95.55,95.63,95.72,95.71,95.86,95.94,96.02,95.9,95.832,95.83,95.95,95.82,95.85,95.815,95.81,95.86,95.83,95.84,95.91,95.96,95.975,95.97,96.03,96.015,95.98,96.0,96.05,96.0,95.93,95.92,96.0,95.96,95.92,95.97,96.01,95.97,95.97,95.99,95.95,95.76,95.73,95.86,95.9,95.92,95.98,95.93,95.99,95.92,95.94,95.945,95.912,95.93,95.93,96.01,95.98,95.96,95.95,95.98,96.01,96.04,96.01,96.17,96.19,96.16,96.12,96.11,96.11,96.05,95.99,96.09,96.14,96.13,96.07,96.02,96.025,95.98,96.01,96.04,95.99,95.95,96.015,96.02,96.0,95.89,95.88,95.92,95.906,95.89,95.88,95.88,95.93,95.87,95.85,95.88,95.901,95.915,95.915,95.91,95.94,95.99,95.92,95.93,95.97,95.95,95.95,95.95,95.93,95.88,95.87,95.865,95.86,95.81,95.85,95.85,95.85,95.83,95.885,95.84,95.845,95.87,95.88,95.87,95.82,95.83,95.8,95.76,95.7,95.7,95.66,95.69,95.78,95.77,95.74,95.77,95.78,95.81,95.8,95.78,95.77,95.75,95.74,95.765,95.77,95.76,95.73,95.75,95.77,95.75,95.74,95.74,95.77,95.75,95.76,95.75,95.76,95.79,-1.0,95.81,95.74,95.735,95.71,95.68,95.677,95.67,95.62,95.61,95.6,95.6,95.613,95.66,95.56,95.54,95.45,95.44,95.48,95.45,95.44,95.45,95.44,95.486,95.575,95.55,95.565,95.63,95.64,95.66,95.685,95.67,95.7,95.67,95.61,95.63,95.585,95.58,95.58,95.55,95.57,95.605,95.61,95.66,95.65,95.715,95.72,95.69,95.67,95.695,95.75,95.74,95.76,95.77,95.74,95.7,95.67,95.68,95.68,95.64,95.64,95.64,95.65,95.67,95.69,95.77,95.825,95.81,95.83,95.81,95.85,95.87,95.89,95.92,95.81,95.81,95.817,95.79,95.76,95.73,95.71,95.61,95.6,95.62,95.61,95.57,95.611,95.55,95.56,95.55,95.52,95.6,95.65,95.68,95.55,95.52,95.57,95.53,95.53,95.483,95.44,95.43,95.42,95.45,95.39,95.37,95.38,95.37,95.4,95.47,95.5,95.49,95.51,95.535,95.55,95.55,95.55,95.48,95.5,95.47,95.43,95.44,95.46,95.47,95.374,95.29,95.28,95.23,95.06,95.04,95.05,95.03,95.055,95.09,95.03,95.03,95.04,95.11,95.16,95.2,95.24,95.33,95.25,95.22,95.19,95.21,95.13
2019-05-17,94.23,94.45,94.4,94.45,94.46,94.415,94.45,94.31,94.31,94.265,94.06,94.2,94.2,94.24,94.27,94.32,94.28,94.23,94.23,94.21,94.06,93.89,94.03,93.89,-1.0,94.04,94.09,94.04,94.06,94.21,94.22,94.25,94.135,94.12,94.09,94.04,94.0,93.94,93.97,94.012,94.0,93.96,93.845,93.84,93.73,93.73,93.8,93.77,93.789,93.82,93.93,94.01,94.09,94.14,94.12,94.06,94.0,94.04,94.015,93.93,93.93,93.87,93.885,93.84,93.855,93.72,93.53,93.496,93.49,93.39,93.36,93.36,93.28,93.3,93.43,93.38,93.22,93.27,93.34,93.383,93.479,93.63,93.68,93.695,93.825,93.91,93.97,94.05,93.95,93.82,93.9,93.88,93.85,93.907,93.95,93.99,94.07,94.13,94.04,93.93,93.91,93.9,93.92,93.97,94.0,93.98,93.985,94.015,94.07,94.08,94.12,94.1,94.08,94.08,94.03,93.96,93.88,93.84,93.78,93.75,93.78,93.67,93.67,93.67,93.71,93.73,93.76,93.71,93.74,93.71,93.65,93.64,93.58,93.46,93.48,93.5,93.58,93.54,93.52,93.52,93.49,93.54,93.53,93.55,93.62,93.62,93.63,93.6,93.68,93.75,93.65,93.68,93.73,93.8,93.74,93.62,93.64,93.7,93.6,93.55,93.49,93.38,93.38,93.44,93.34,93.33,93.295,93.3,93.33,93.37,93.38,93.35,93.35,93.41,93.38,93.35,93.31,93.31,93.25,93.17,93.128,93.095,93.05,93.05,92.985,93.05,93.05,93.055,93.09,93.06,93.015,92.96,93.11,93.12,93.08,93.09,93.1,93.03,92.99,92.99,92.985,92.965,92.98,92.985,93.0,93.0,92.945,92.92,92.87,92.86,92.85,92.86,92.86,92.91,92.83,92.88,92.89,92.87,92.915,92.98,92.98,92.94,92.94,92.92,92.89,92.89,92.96,93.015,93.03,93.01,93.0,93.04,93.05,93.056,93.03,93.01,93.03,93.07,93.08,93.02,92.97,92.99,93.04,93.14,93.18,93.23,93.29,93.29,93.27,93.28,93.34,93.26,93.19,93.22,93.26,93.25,-1.0,93.35,93.39,93.4,93.42,93.48,93.48,93.41,93.37,93.35,93.33,93.37,93.38,93.46,93.44,93.33,93.32,93.295,93.26,93.26,93.3,93.29,93.27,93.22,93.15,93.07,93.05,93.04,93.02,92.98,92.96,92.97,92.97,93.0,93.0,92.98,92.995,92.99,92.99,92.98,92.91,92.89,92.87,92.89,92.84,92.86,92.86,92.93,92.98,93.03,93.03,93.05,93.14,93.08,93.04,93.01,93.01,93.04,93.06,93.06,93.1,93.1,93.08,93.11,93.08,93.105,93.13,93.2,93.24,93.25,93.295,93.36,93.35,93.32,93.325,93.11,93.03,93.16,93.05,92.96,92.94,92.9,92.87,92.82,92.78,92.805,92.82,92.76,92.79,92.765,92.71,92.77,92.74,92.73,92.79,92.75,92.74,92.82,92.79,92.777,92.77,92.755,92.76,92.81,92.81,92.718,92.675,92.67,92.7,92.775,92.81,92.87,92.92,92.91,92.81,92.77,92.83,92.955,92.95,92.94,92.945,92.91,92.95,92.91,92.888,92.96,93.06,93.05,93.055,93.05,93.18,93.13,93.02,92.99
2019-05-20,93.03,93.143,93.03,93.1,93.2,93.02,93.04,93.08,92.78,92.87,93.07,93.06,93.16,93.34,93.47,93.53,93.73,93.55,93.46,93.38,93.29,93.37,93.31,93.22,93.22,93.19,93.445,93.55,93.59,93.51,93.6,93.712,93.82,93.75,93.75,93.69,93.65,93.71,93.73,93.85,93.81,93.88,93.97,94.07,94.075,94.07,94.14,94.18,94.15,94.035,94.03,94.01,94.07,94.13,94.2,94.23,94.25,94.19,94.2,94.27,94.25,94.16,94.12,94.165,94.16,94.25,94.26,94.28,94.25,94.28,94.28,94.34,94.379,94.385,94.28,94.34,94.2,94.17,94.2,94.17,94.15,94.235,94.34,94.32,94.36,94.43,94.43,94.41,94.435,94.42,94.43,94.24,94.18,94.14,94.12,94.07,94.09,93.99,94.01,93.95,93.93,94.01,94.06,94.06,94.05,94.01,93.91,93.96,93.86,93.73,93.64,93.68,93.61,93.58,93.71,93.62,93.6,93.66,93.69,93.72,93.74,93.836,93.8,93.825,93.84,93.77,93.73,93.73,93.75,93.74,93.8,93.92,93.8,93.79,93.72,93.8,93.892,93.95,93.87,93.86,93.93,93.94,93.88,93.91,93.96,93.91,93.934,93.94,93.97,94.03,94.04,94.07,94.12,94.07,94.08,94.06,94.09,94.04,94.0,93.96,94.0,94.06,94.04,94.04,94.06,94.07,94.06,94.01,94.0,94.02,94.01,93.99,94.02,94.06,94.04,94.0,94.0,93.99,93.98,93.97,93.987,93.87,93.89,93.9,93.94,93.96,94.04,94.05,94.03,93.955,93.93,93.94,93.9,93.97,93.96,94.02,94.04,93.98,93.96,93.96,93.93,93.93,93.94,93.93,93.92,93.92,93.89,93.85,93.81,93.85,93.79,93.75,93.75,93.72,93.67,93.72,93.77,93.76,93.76,93.72,93.72,93.72,93.71,93.69,93.62,93.63,93.68,93.69,93.72,93.71,93.69,93.71,93.7,93.73,93.68,93.66,93.61,93.58,93.56,93.54,93.56,93.55,93.51,93.55,93.57,93.53,93.54,93.6,93.52,93.49,93.59,93.63,93.56,93.57,93.49,93.53,93.47,93.47,93.52,93.54,93.49,93.415,93.4,93.37,93.34,93.38,93.35,93.35,93.35,93.42,93.43,93.39,93.35,93.341,93.36,93.4,93.4,93.41,93.37,93.35,93.38,93.44,93.43,93.51,93.495,93.45,93.5,93.53,93.49,93.45,93.43,93.49,93.52,93.46,93.48,93.48,93.57,93.55,93.56,93.54,93.56,93.53,93.54,93.51,93.52,93.56,93.56,93.57,-1.0,93.54,93.57,93.61,93.6,93.54,-1.0,93.53,93.58,93.58,93.55,93.56,93.57,93.596,-1.0,93.55,93.55,93.55,93.54,93.56,93.56,93.53,93.48,93.47,93.42,93.39,93.33,93.36,93.34,93.35,93.38,93.35,93.36,93.31,93.33,93.3,93.3,93.36,93.36,93.42,93.47,93.5,93.45,93.51,93.51,93.47,93.43,93.4,93.4,93.41,93.41,93.42,93.46,93.47,93.53,93.57,93.59,93.61,93.65,93.65,93.68,93.68,93.64,93.656,93.66,93.61,93.57,93.57,93.6,93.56,93.56,93.5,93.5,93.51,93.52,93.59,93.62,93.61,93.7,93.6,93.55,93.54
2019-05-21,94.09,94.23,94.16,94.175,94.11,94.1,94.13,94.32,94.37,94.48,94.38,94.48,94.77,94.77,94.67,94.57,94.68,94.73,94.82,94.89,94.88,94.89,95.03,94.98,94.99,94.97,95.03,95.04,95.01,94.99,94.92,95.02,95.13,95.21,95.145,95.075,95.11,95.13,95.09,95.0,94.97,95.015,95.085,95.09,95.02,95.01,95.18,95.13,95.03,95.0,95.02,94.91,94.93,94.84,94.83,94.85,94.92,94.92,94.82,94.77,94.88,94.85,94.82,94.925,94.93,94.92,94.83,94.8,94.72,94.695,94.73,94.71,94.68,94.77,94.83,94.88,94.895,94.99,94.95,94.92,94.86,94.89,94.92,94.95,94.945,94.94,94.93,94.995,94.99,95.03,95.08,95.07,95.05,95.01,94.98,94.97,95.12,95.03,94.93,94.93,94.87,94.86,94.9,94.91,94.911,95.01,94.98,94.95,94.96,94.999,95.04,94.98,95.025,95.14,95.07,95.11,95.19,95.06,95.0,94.95,95.02,95.01,95.02,95.0,95.05,94.96,94.93,94.91,94.85,94.72,94.77,94.83,94.85,94.87,94.8,94.82,94.84,94.87,94.845,94.825,94.76,94.69,94.63,94.58,94.56,94.575,94.57,94.58,94.63,94.69,94.78,94.75,94.76,94.74,94.77,94.82,94.78,94.83,94.8,94.85,94.85,94.88,94.88,94.78,94.92,94.96,94.95,94.86,94.898,94.915,95.01,94.95,94.98,95.015,94.93,94.95,94.93,94.97,94.97,94.98,94.94,94.98,95.03,95.0,95.01,95.01,95.04,95.04,95.034,94.97,94.97,94.98,94.98,94.987,94.97,95.02,95.01,94.99,95.03,95.05,95.07,95.05,95.06,95.0,94.99,95.02,95.0,95.01,95.03,95.03,95.03,95.01,94.99,95.04,95.03,95.01,94.92,94.89,94.91,94.89,94.87,94.92,94.94,94.95,94.94,94.88,94.91,94.9,94.9,94.915,94.925,94.85,94.85,94.88,94.85,94.854,94.85,94.88,94.83,94.83,94.9,94.93,94.92,94.91,94.93,94.89,94.92,94.92,94.935,94.955,94.97,94.94,94.925,94.93,94.93,94.93,94.96,95.03,95.04,95.03,95.01,95.04,95.05,95.03,94.99,94.99,94.99,95.01,94.99,94.98,94.98,95.016,95.04,95.06,95.08,95.115,95.12,95.13,95.12,95.16,95.15,95.17,95.11,95.13,95.12,95.18,95.19,95.19,95.17,95.16,95.15,95.171,95.18,95.21,95.2,95.193,95.14,95.19,95.19,95.17,95.13,95.144,95.14,95.14,95.18,95.17,95.24,95.26,95.28,95.26,95.31,95.33,95.45,95.43,95.44,95.44,95.445,95.421,95.505,95.53,95.52,95.51,95.48,95.48,95.53,95.48,95.47,95.44,95.45,95.46,95.46,95.47,95.418,95.4,95.41,95.41,95.45,95.43,95.46,95.49,-1.0,95.47,95.42,95.42,95.39,95.42,95.37,95.37,95.36,95.4,95.395,95.41,95.36,95.37,95.36,95.37,95.405,95.436,95.5,95.53,95.57,95.61,95.66,95.603,95.62,95.67,95.72,95.75,95.78,95.83,95.87,95.87,95.82,95.85,95.86,95.86,95.86,95.835,95.89,95.86,95.86,95.86,95.87,95.87,95.825,95.82,95.78,95.76,95.76,95.63
2019-05-22,94.9,94.955,95.12,95.08,94.87,94.75,94.96,94.925,94.95,94.94,95.05,94.89,94.99,94.92,94.97,94.89,94.86,94.807,94.93,94.84,94.88,94.86,94.86,94.89,94.9,94.9,94.97,94.95,94.975,95.21,95.26,95.16,95.23,95.16,95.14,95.19,95.1,94.97,94.98,-1.0,94.94,94.78,94.795,94.71,94.64,94.613,94.81,94.72,94.61,94.62,94.61,94.58,94.59,94.65,94.695,94.72,94.66,94.6,94.75,94.706,94.41,94.43,94.43,94.5,94.52,94.346,94.31,94.13,94.17,94.18,94.12,94.12,94.05,93.98,93.939,93.91,93.94,93.94,93.95,93.825,93.825,93.82,93.83,93.81,93.81,93.8,93.65,93.58,93.58,93.61,93.51,93.48,93.44,93.36,93.3,93.37,93.39,93.46,93.455,93.51,93.56,93.5,93.54,93.48,93.43,93.5,93.58,93.59,93.65,93.58,93.49,93.34,93.31,93.32,93.31,93.289,93.21,93.21,93.317,93.33,93.36,93.39,93.35,93.29,93.21,93.19,93.185,93.12,93.04,93.08,93.13,93.15,93.16,93.17,93.22,93.21,93.13,93.19,93.26,93.3,93.31,93.26,93.12,93.12,93.12,93.1,93.035,93.035,93.03,92.91,92.94,92.87,92.81,92.83,92.84,92.78,92.78,92.82,92.84,92.8,92.72,92.79,92.77,92.78,92.77,92.79,92.74,92.77,92.77,92.82,92.81,92.84,92.85,92.88,92.81,92.86,92.84,92.89,92.92,92.98,92.97,92.91,92.84,92.87,92.91,92.89,92.84,92.82,92.92,92.98,92.88,92.785,92.76,92.86,92.82,92.85,92.75,92.71,92.73,92.72,92.6,92.6,92.675,92.675,92.68,92.81,92.85,92.85,92.84,92.84,92.8,92.79,92.79,92.82,92.71,92.65,92.61,92.61,92.62,92.53,92.51,92.58,92.6,92.57,92.55,92.57,92.556,92.54,92.53,92.56,92.6,92.54,92.52,92.555,92.55,92.575,92.55,92.55,92.59,92.67,92.6,92.62,92.63,92.62,92.62,92.61,92.584,92.6,92.645,92.64,92.63,92.78,92.77,92.77,92.79,92.74,92.71,92.7,92.75,92.81,92.76,92.73,92.73,92.71,92.77,92.84,92.92,92.8,92.8,92.78,92.77,92.75,92.72,92.73,92.63,92.61,92.61,92.62,92.61,92.58,92.57,92.53,92.53,92.58,92.52,92.54,92.53,92.5,92.49,92.5,92.54,92.514,92.52,92.55,92.54,92.56,92.6,92.57,92.56,92.51,92.49,92.48,92.51,92.57,92.55,92.59,92.63,92.65,92.66,92.67,92.66,92.64,92.59,92.61,92.6,92.6,92.57,92.595,92.66,92.67,92.67,92.66,92.66,92.56,92.5,92.51,92.51,92.56,92.44,92.39,92.43,92.51,92.47,92.51,92.54,92.61,92.72,92.75,92.765,92.71,92.73,92.73,92.7,92.7,92.69,92.71,92.68,92.64,92.61,92.665,92.72,92.69,92.71,92.73,92.856,92.93,92.9,92.94,92.94,92.82,92.8,92.81,92.8,92.74,92.747,92.74,92.68,92.69,92.72,92.685,92.72,92.71,92.75,92.78,92.81,92.76,92.785,92.71,92.66,92.68,92.78,92.83,92.84,92.91,92.92,92.91,92.92,92.98,92.95,92.89
2019-05-23,90.39,90.05,90.11,89.82,89.23,89.2,89.22,89.1,89.084,88.8,88.54,88.42,88.38,87.94,88.02,87.96,88.037,88.14,88.2,88.51,88.23,88.26,88.35,88.55,88.443,88.24,88.15,88.23,88.52,88.3,88.26,88.32,88.36,88.43,88.51,88.4,88.44,88.5,88.31,88.2,88.18,88.03,88.05,88.0,88.019,88.08,88.0,87.91,87.95,87.67,87.6,87.59,87.545,87.57,87.51,87.3,87.3,87.32,87.25,87.42,87.37,87.35,87.48,87.53,87.75,87.87,87.935,87.92,87.83,87.8,87.77,87.77,87.87,87.8,87.71,87.65,87.89,87.86,87.79,87.9,87.92,87.935,87.93,88.09,88.2,88.16,88.21,88.13,88.18,88.11,88.14,87.95,88.01,88.07,88.25,88.3,88.14,88.31,88.33,88.35,88.33,88.4,88.46,88.5,88.655,88.58,88.57,88.54,88.525,88.42,88.435,88.505,88.46,88.28,88.18,88.26,88.279,88.21,88.14,88.14,88.02,88.0,88.13,88.09,88.1,88.01,88.01,88.04,88.09,88.127,88.01,88.06,88.0,88.08,88.105,88.1,88.04,88.0,88.06,88.07,88.03,88.08,88.07,88.06,88.02,87.95,87.97,87.99,87.97,87.97,88.04,88.03,88.092,88.1,88.202,88.18,88.26,88.18,88.23,88.11,88.17,88.325,88.27,88.295,88.315,88.27,88.24,88.175,88.18,88.12,88.18,88.06,88.03,88.01,88.01,88.09,88.07,88.031,88.05,88.12,88.11,88.07,88.08,88.07,88.07,88.12,88.06,88.095,88.07,88.07,88.06,88.06,88.08,88.08,88.04,88.01,88.075,88.16,88.15,88.19,88.31,88.29,88.22,88.16,88.3,88.29,88.16,88.14,88.07,88.06,88.02,88.03,88.0,87.99,87.99,88.09,88.09,88.11,88.04,88.05,88.05,88.03,88.01,87.92,87.92,87.85,87.83,87.875,87.78,87.795,87.78,87.8,87.7,87.75,87.85,87.83,87.9,87.93,87.97,88.03,87.98,88.02,87.97,88.02,88.03,88.08,88.03,88.146,88.2,88.2,88.21,88.14,88.17,88.12,88.06,88.059,88.04,88.03,88.025,88.02,88.02,87.99,87.99,87.95,87.89,87.84,87.82,87.85,87.93,87.97,88.04,88.01,87.96,87.95,87.88,87.91,87.92,87.94,87.93,87.9,87.92,87.9,87.91,87.895,87.87,87.9,87.93,87.91,87.89,87.964,87.99,88.045,88.12,88.14,88.17,88.16,88.16,88.15,88.16,88.073,88.1,88.05,88.0,88.06,88.09,88.13,88.11,88.11,88.13,88.08,88.07,88.05,88.03,87.9,87.91,87.935,87.94,87.93,87.85,87.803,87.8,87.9,87.941,87.92,88.01,88.02,88.0,87.97,88.04,88.04,88.04,88.05,87.99,87.92,87.9,87.895,87.95,87.95,87.92,87.91,87.91,87.92,87.88,87.885,87.93,87.95,87.98,88.1,88.25,88.23,88.27,88.38,88.41,88.495,88.419,88.43,88.49,88.54,88.529,88.56,88.5,88.615,88.69,88.83,88.85,88.85,88.96,88.93,88.89,88.85,88.73,88.7,88.6,88.54,88.59,88.7,88.63,88.59,88.62,88.645,88.6,88.63,88.63,88.69,88.75,88.77,88.69,88.69,88.65,88.69
2019-05-24,89.65,90.17,89.81,89.89,89.65,89.56,89.47,89.23,89.37,89.35,89.43,89.2,89.25,89.15,89.1,89.01,89.0,89.02,88.91,88.75,88.794,88.8,88.845,88.78,88.825,88.88,89.09,89.02,89.04,89.0,89.13,89.12,89.18,89.23,89.22,89.25,89.14,89.03,88.99,88.86,88.86,88.95,88.95,88.92,88.88,88.97,89.05,89.06,89.03,89.06,88.97,89.06,89.09,89.13,89.07,88.97,88.99,89.08,89.0,88.93,88.9,88.91,88.83,88.73,88.72,88.511,88.52,88.53,88.46,88.46,88.36,88.34,88.395,88.36,88.32,88.365,88.35,88.2,88.227,88.13,88.084,88.01,88.01,87.93,87.92,87.87,87.9,87.93,87.96,87.96,87.9,87.87,87.86,87.8,87.84,87.73,87.7,87.72,87.66,87.59,87.48,87.35,87.27,87.44,87.288,87.29,87.27,87.19,87.26,87.39,87.31,87.32,87.35,87.365,87.44,87.445,87.47,87.44,87.41,87.35,87.35,87.45,87.39,87.41,87.355,87.34,87.42,87.365,87.36,87.29,87.25,87.27,87.29,87.24,87.29,87.3,87.25,87.3,87.25,87.24,87.27,87.25,87.31,87.34,87.34,87.32,87.27,87.25,87.21,87.2,87.17,87.14,87.14,87.14,87.14,87.18,87.18,87.15,87.14,87.075,87.13,87.1,87.08,87.04,87.05,86.98,86.98,86.94,86.86,86.92,86.98,86.98,86.98,86.95,86.96,86.98,86.96,86.96,86.965,86.985,86.99,86.99,87.02,87.2,87.19,87.25,-1.0,87.32,87.36,87.31,87.31,87.19,87.22,87.215,87.23,87.24,87.21,87.18,87.21,87.18,87.18,87.169,87.16,87.164,87.18,87.14,87.16,87.14,87.14,87.16,87.25,87.29,87.26,87.245,87.23,87.21,87.15,87.14,87.1,87.165,87.175,87.09,87.12,87.14,87.13,87.12,87.03,87.1,87.13,87.15,87.08,87.06,87.08,87.03,87.09,87.06,87.065,87.045,87.06,86.98,87.01,87.01,87.04,87.01,87.01,86.91,86.94,86.96,87.01,87.01,86.99,86.99,87.0,86.95,87.0,86.99,86.975,86.99,86.94,86.95,86.98,87.0,86.98,86.99,86.98,86.89,86.89,86.87,86.894,86.92,86.99,86.96,86.96,86.98,86.98,86.94,86.95,86.94,86.89,86.91,86.92,86.86,86.79,86.79,86.79,86.74,86.71,86.71,86.71,86.74,86.74,86.72,86.72,86.71,86.725,86.74,86.89,86.92,86.885,86.88,86.88,86.84,86.87,86.88,86.8,86.74,86.74,86.74,86.72,86.72,86.735,86.72,86.74,86.73,86.73,86.74,86.74,86.9,86.85,86.87,86.86,86.86,86.85,86.86,86.86,86.875,86.84,86.83,86.89,86.89,86.92,86.87,86.92,86.9,86.91,86.85,86.85,86.83,86.83,86.87,86.895,86.92,86.94,86.98,87.0,87.02,87.07,87.065,86.99,86.91,86.93,86.94,86.94,86.88,86.87,86.853,86.85,86.84,86.84,86.88,86.92,86.9,86.94,86.9,86.92,86.885,86.885,86.89,86.85,86.88,86.9,86.96,86.995,87.025,87.04,87.08,87.1,87.11,87.23,87.22,87.215,87.225,87.12,87.14,87.168,87.2,87.13,87.15,87.17,86.99
2019-05-28,87.5,87.52,87.7,87.72,87.738,87.62,87.74,87.77,87.69,87.61,87.7,87.68,87.81,87.79,87.58,87.7,87.86,87.875,87.92,87.941,87.89,87.89,87.835,87.94,88.16,88.18,88.17,88.03,88.1,88.04,88.07,88.06,88.11,87.98,87.92,87.941,88.019,88.1,88.12,87.91,87.81,87.775,87.79,87.81,87.805,87.83,87.88,87.82,87.65,87.68,87.745,87.765,87.865,87.78,87.765,87.685,87.64,87.61,87.54,87.59,87.663,87.567,87.6,87.58,87.47,87.31,87.23,87.21,87.22,87.06,87.075,87.08,87.19,87.22,87.22,87.15,87.22,87.28,87.36,87.34,87.26,87.165,86.965,86.99,87.09,87.04,87.06,87.05,87.09,87.15,87.175,87.32,87.48,87.445,87.405,87.45,87.58,87.64,87.67,87.66,87.63,87.59,87.57,87.59,87.68,87.62,87.64,87.675,87.675,87.77,87.675,87.66,87.675,87.68,87.61,87.65,87.56,87.478,87.48,87.39,87.3,87.27,87.27,87.22,87.225,87.311,87.46,87.415,87.44,87.39,87.52,87.52,87.53,87.6,87.59,87.57,87.54,87.555,87.49,87.41,87.39,87.46,87.39,87.33,87.31,87.23,87.22,87.25,87.345,87.34,87.36,87.36,87.38,87.44,87.37,87.37,87.395,87.39,87.42,87.33,87.33,87.315,87.43,87.48,87.5,87.525,-1.0,87.532,87.53,87.56,87.615,87.61,87.56,87.57,87.57,87.59,87.65,87.64,87.63,87.6,87.6,87.59,87.485,87.43,87.45,87.47,87.47,87.45,87.46,87.39,87.4,87.37,87.369,87.41,87.35,87.3,87.38,87.38,87.39,87.35,87.335,87.35,87.42,87.38,87.33,87.32,87.35,87.31,87.33,87.27,87.275,87.34,87.42,87.48,87.46,87.45,87.47,87.56,87.54,87.51,87.5,87.52,87.6,87.59,87.55,87.588,87.59,87.599,87.59,87.55,87.55,87.55,87.56,87.56,87.55,87.53,87.53,87.54,87.52,87.545,87.54,87.56,87.55,87.58,87.6,87.64,87.665,87.73,87.71,87.67,87.685,87.76,87.71,87.67,87.67,87.65,87.65,87.62,87.59,87.66,87.71,87.72,87.68,87.66,87.594,87.62,87.58,87.56,87.57,87.6,87.57,87.53,87.545,87.49,87.46,87.45,87.43,87.46,87.45,87.44,87.44,87.39,87.35,87.31,87.32,87.38,87.39,87.405,87.49,87.48,87.46,87.46,87.45,87.43,87.38,87.36,87.39,87.41,87.43,87.39,87.31,87.4,87.41,87.35,87.35,87.25,87.26,87.23,87.25,87.17,87.11,87.07,87.03,87.04,87.03,87.095,87.09,87.15,87.15,87.21,87.23,87.29,87.32,87.28,87.35,87.38,87.39,87.41,87.43,87.45,87.38,87.39,87.35,87.33,87.38,87.385,87.5,87.525,87.5,87.445,87.41,87.41,87.38,87.38,87.44,87.49,87.523,87.53,87.51,87.5,87.44,87.44,87.44,87.41,87.48,87.45,87.505,87.45,87.45,87.38,87.29,87.24,87.255,87.29,87.29,87.27,87.25,87.24,87.27,87.29,87.25,87.28,87.325,87.28,87.23,87.23,87.23,87.265,87.275,87.28,87.23,87.25,87.24,87.24,87.25,87.29,87.2,87.21,87.23,87.12
2019-05-29,85.6,85.93,85.98,85.85,85.62,85.54,85.72,85.69,85.6,85.57,85.53,85.6,85.583,85.58,85.6,85.52,85.55,85.33,85.2,85.18,85.21,85.23,85.28,85.18,85.14,85.35,85.32,85.32,85.37,85.3,85.22,85.19,85.19,85.2,85.26,85.3,85.22,85.25,85.18,85.14,85.31,85.3,85.33,85.44,85.535,85.645,85.73,85.72,85.75,85.66,85.65,85.64,85.69,85.69,85.7,85.67,85.72,85.76,85.83,85.71,85.811,85.783,85.78,85.73,85.66,85.685,85.775,85.76,85.7,85.77,85.74,85.71,85.67,85.76,85.81,85.72,85.73,85.77,85.7,85.64,85.77,85.72,85.64,85.645,85.67,85.61,85.67,85.74,85.7,85.7,85.62,85.62,85.66,85.69,85.62,85.55,85.52,85.55,85.61,85.55,85.45,85.311,85.36,85.36,85.22,85.17,85.02,85.095,85.13,85.06,84.97,84.93,84.8,84.76,84.73,84.825,84.9,84.87,84.83,84.78,84.85,84.89,84.9,84.9,84.9,84.96,84.83,84.8,84.82,84.77,84.63,84.603,84.44,84.36,84.42,84.4,84.43,84.44,84.465,84.45,84.5,84.43,84.325,84.28,84.29,84.28,84.36,84.32,84.3,84.31,84.35,84.42,84.4,84.33,84.4,84.4,84.47,84.53,84.57,84.59,84.59,84.63,84.658,84.72,84.78,84.77,84.85,84.84,84.88,84.85,84.75,84.74,84.67,84.64,84.57,84.65,84.69,84.66,84.64,84.68,84.68,84.76,84.75,84.67,84.75,84.78,84.7,84.73,84.81,84.853,84.87,84.86,84.85,84.91,84.94,84.965,85.01,84.96,84.95,84.86,84.89,84.89,84.85,84.84,84.845,84.9,84.91,84.94,84.88,84.91,84.95,84.97,85.12,85.13,85.08,85.13,85.2,85.27,85.3,85.49,85.52,85.6,85.61,85.53,85.43,85.36,85.375,85.415,85.409,85.35,85.47,85.43,85.42,85.44,85.47,85.54,85.52,85.51,85.63,85.66,85.65,85.76,85.855,85.86,85.8,85.79,85.865,85.89,85.88,85.9,85.88,85.83,85.78,85.73,85.755,85.72,85.72,85.71,85.75,85.79,85.83,85.77,85.69,85.68,85.67,85.64,85.64,85.62,85.6,85.6,85.63,85.64,85.61,85.63,85.66,85.66,85.63,85.7,85.69,85.67,85.63,85.64,85.62,85.5,85.52,85.52,85.57,85.58,85.55,85.62,85.6,85.67,85.67,85.71,85.7,85.68,85.73,85.8,85.8,85.83,85.83,85.75,85.74,85.74,85.777,85.74,85.79,85.83,85.83,85.845,85.79,85.73,85.79,85.73,85.72,85.71,85.69,85.7,85.74,85.75,85.71,85.72,85.68,85.728,85.76,85.74,85.79,85.84,85.92,85.94,85.895,85.87,85.84,85.84,85.84,85.82,85.81,85.822,85.83,85.86,85.825,85.84,85.88,85.9,85.945,85.95,85.95,85.97,86.01,86.062,86.03,86.105,86.14,86.14,86.155,86.18,86.18,86.15,86.12,86.12,86.13,86.12,86.06,86.09,86.16,86.33,86.34,86.33,86.29,86.29,86.305,86.36,86.34,86.39,86.39,86.36,86.35,86.36,86.4,86.47,86.43,86.4,86.42,86.44,86.47,86.495,86.51,86.54,86.53,86.43
2019-05-30,86.26,86.25,86.13,86.29,85.95,85.99,85.954,85.92,85.65,85.64,85.735,85.76,85.945,85.89,85.95,85.93,85.95,86.0,85.91,85.94,85.82,85.885,85.93,85.91,85.87,85.98,86.0,86.07,85.988,85.95,85.75,85.76,85.8,85.87,85.78,85.67,85.61,85.55,85.57,85.63,85.63,85.63,85.74,85.63,85.65,85.714,85.61,85.566,85.36,85.37,85.345,85.35,85.38,85.33,85.28,85.25,85.32,85.33,85.31,85.28,85.32,85.2,85.215,85.22,85.11,85.01,84.95,84.99,85.045,85.04,84.96,84.898,84.85,84.9,84.95,84.97,84.97,84.94,84.91,84.875,84.78,84.76,84.685,84.77,84.84,84.848,85.03,85.18,85.255,85.2,84.81,84.4,84.279,84.21,84.33,84.44,84.28,84.22,84.29,84.355,84.36,84.37,84.54,84.62,84.7,84.57,84.563,84.4,84.4,84.27,84.23,84.16,83.96,83.89,83.86,83.86,83.83,83.91,83.855,83.82,83.83,83.989,83.91,83.97,84.01,84.155,84.2,84.24,84.25,84.315,84.31,84.22,84.295,84.21,84.232,84.14,84.14,84.15,84.11,84.01,83.97,83.87,83.81,83.82,83.83,83.91,83.94,83.95,83.97,84.01,84.1,84.056,84.02,84.02,84.021,83.995,83.99,84.115,84.01,84.01,83.98,83.985,84.04,84.0,84.03,84.1,84.1,84.25,84.29,84.32,84.3,84.28,84.26,84.28,84.268,84.21,84.16,84.18,84.19,84.177,84.15,84.08,84.115,84.12,84.15,84.215,84.23,84.21,84.3,84.28,84.3,84.27,84.28,84.26,84.339,84.31,84.31,84.42,84.44,84.38,84.45,84.43,84.47,84.44,84.45,84.42,84.45,84.43,84.41,84.424,84.38,84.395,84.42,84.43,84.4,84.38,84.32,84.29,84.21,84.199,84.19,84.2,84.2,84.18,84.21,84.17,84.2,84.23,84.21,84.23,84.27,84.365,84.34,84.3,84.33,84.35,84.35,84.36,84.29,84.33,84.33,84.26,84.2,84.2,84.18,84.1,84.1,84.1,84.11,84.09,84.07,84.06,84.09,84.18,84.16,84.125,84.155,84.09,84.115,84.1,84.12,84.195,84.23,84.32,84.32,84.38,84.31,84.34,84.33,84.334,84.3,84.323,84.39,84.43,84.43,84.42,84.36,84.3,84.26,84.2,84.27,84.27,84.25,84.22,84.19,84.1,84.09,84.09,84.096,84.11,84.16,84.11,84.09,84.085,84.04,83.985,84.01,84.065,84.11,84.07,84.03,84.018,84.03,84.02,84.03,84.04,84.015,83.94,83.935,83.93,83.95,84.02,83.96,83.925,83.93,83.9,83.945,83.99,83.955,83.96,84.04,84.02,84.04,84.02,84.06,84.085,84.17,84.16,84.16,84.165,84.12,84.125,84.11,84.12,84.13,84.11,84.01,83.91,83.88,83.982,84.005,84.03,84.05,84.085,84.09,84.02,84.02,84.02,84.03,84.05,84.02,84.01,83.99,83.99,83.98,83.92,83.91,83.95,83.965,83.95,83.914,83.91,83.94,83.97,83.97,83.99,84.06,84.095,84.08,84.07,84.03,84.03,84.045,84.01,84.02,84.01,84.01,84.04,83.99,83.97,83.995,83.98,84.01,84.0,83.945,83.91,83.885,83.85,83.86,83.86
2019-05-31,82.15,82.18,82.22,82.682,82.76,82.69,82.76,82.77,82.71,82.79,82.77,82.82,82.97,82.99,82.98,83.02,83.14,83.29,83.3,83.17,83.06,82.94,82.96,83.09,82.93,82.98,83.01,82.9,82.944,83.1,83.14,83.094,83.1,83.12,83.05,83.01,82.91,83.03,82.96,83.0,82.98,82.927,82.91,82.89,82.81,82.845,82.96,83.0,83.13,83.2,83.22,83.245,83.36,83.43,83.51,83.42,83.46,83.455,83.46,83.5,83.515,83.5,83.49,83.53,83.48,83.55,83.58,83.651,83.69,83.65,83.64,83.55,83.55,83.41,83.32,83.42,83.41,83.35,83.36,83.29,83.37,83.5,83.52,83.58,83.56,83.483,83.41,83.37,83.415,83.37,83.34,83.37,83.38,83.24,83.11,83.03,83.027,83.02,83.105,83.19,83.18,83.16,83.19,83.13,83.06,83.09,83.05,83.07,83.1,83.06,83.09,83.115,83.19,83.3,83.34,83.42,83.32,83.28,83.345,83.42,83.26,83.3,83.28,83.28,83.31,83.34,83.32,83.32,83.26,83.292,83.28,83.27,83.31,83.25,83.22,83.13,83.12,83.1,83.1,83.1,83.13,83.16,83.15,83.08,83.07,83.04,83.06,83.19,83.21,83.28,83.27,83.24,83.2,83.13,83.08,83.07,83.1,83.07,83.08,83.09,83.08,83.08,83.07,83.07,83.05,83.08,83.11,83.13,83.14,83.21,83.2,83.18,83.09,83.06,83.08,83.08,83.02,83.02,83.06,83.1,83.05,83.05,83.03,83.04,83.09,83.05,83.04,83.0,82.94,82.91,82.89,82.88,82.87,82.9,82.89,82.9,82.92,82.9,82.874,82.92,82.94,82.95,82.93,82.89,82.89,82.92,82.796,82.83,82.85,82.855,82.86,82.87,82.9,82.9,82.89,82.89,82.85,82.81,82.795,82.81,82.81,82.89,82.86,82.84,82.81,82.805,82.81,82.81,82.82,82.79,82.77,82.7,82.63,82.65,82.68,82.69,82.67,82.635,82.65,82.68,82.66,82.7,82.71,82.68,82.61,82.67,82.658,82.66,82.617,82.61,82.59,82.56,82.55,82.53,82.52,82.5,82.53,82.5,82.58,82.58,82.5,82.48,82.46,82.485,82.5,82.53,82.54,82.55,82.54,82.54,82.44,82.39,82.37,82.34,82.35,82.31,82.36,82.34,82.345,82.36,82.31,82.265,82.24,82.24,82.21,82.19,82.19,82.23,82.23,82.21,82.2,82.19,82.2,82.22,82.19,82.12,82.09,82.12,82.11,82.125,82.09,82.063,82.05,82.04,82.03,82.1,82.09,82.08,82.12,82.09,82.098,82.125,82.22,82.27,82.26,82.28,82.31,82.29,82.29,82.29,82.32,82.35,82.385,82.45,82.42,82.4,82.43,82.42,82.4,82.41,82.355,82.3,82.3,82.27,82.19,82.13,82.09,82.08,82.02,81.97,81.96,81.97,81.96,82.01,81.97,81.99,81.98,81.97,81.97,81.95,81.98,82.02,81.95,81.95,81.97,81.93,81.94,81.86,81.83,81.87,81.92,81.93,81.92,81.95,81.94,81.9,81.91,81.905,81.85,81.87,81.905,81.88,81.9,81.92,81.905,81.915,81.91,81.93,81.99,82.01,81.99,81.91,81.91,81.92,81.915,81.89,81.91,81.92,81.92,81.83
