,09:30,09:31,09:32,09:33,09:34,09:35,09:36,09:37,09:38,09:39,09:40,09:41,09:42,09:43,09:44,09:45,09:46,09:47,09:48,09:49,09:50,09:51,09:52,09:53,09:54,09:55,09:56,09:57,09:58,09:59,10:00,10:01,10:02,10:03,10:04,10:05,10:06,10:07,10:08,10:09,10:10,10:11,10:12,10:13,10:14,10:15,10:16,10:17,10:18,10:19,10:20,10:21,10:22,10:23,10:24,10:25,10:26,10:27,10:28,10:29,10:30,10:31,10:32,10:33,10:34,10:35,10:36,10:37,10:38,10:39,10:40,10:41,10:42,10:43,10:44,10:45,10:46,10:47,10:48,10:49,10:50,10:51,10:52,10:53,10:54,10:55,10:56,10:57,10:58,10:59,11:00,11:01,11:02,11:03,11:04,11:05,11:06,11:07,11:08,11:09,11:10,11:11,11:12,11:13,11:14,11:15,11:16,11:17,11:18,11:19,11:20,11:21,11:22,11:23,11:24,11:25,11:26,11:27,11:28,11:29,11:30,11:31,11:32,11:33,11:34,11:35,11:36,11:37,11:38,11:39,11:40,11:41,11:42,11:43,11:44,11:45,11:46,11:47,11:48,11:49,11:50,11:51,11:52,11:53,11:54,11:55,11:56,11:57,11:58,11:59,12:00,12:01,12:02,12:03,12:04,12:05,12:06,12:07,12:08,12:09,12:10,12:11,12:12,12:13,12:14,12:15,12:16,12:17,12:18,12:19,12:20,12:21,12:22,12:23,12:24,12:25,12:26,12:27,12:28,12:29,12:30,12:31,12:32,12:33,12:34,12:35,12:36,12:37,12:38,12:39,12:40,12:41,12:42,12:43,12:44,12:45,12:46,12:47,12:48,12:49,12:50,12:51,12:52,12:53,12:54,12:55,12:56,12:57,12:58,12:59,13:00,13:01,13:02,13:03,13:04,13:05,13:06,13:07,13:08,13:09,13:10,13:11,13:12,13:13,13:14,13:15,13:16,13:17,13:18,13:19,13:20,13:21,13:22,13:23,13:24,13:25,13:26,13:27,13:28,13:29,13:30,13:31,13:32,13:33,13:34,13:35,13:36,13:37,13:38,13:39,13:40,13:41,13:42,13:43,13:44,13:45,13:46,13:47,13:48,13:49,13:50,13:51,13:52,13:53,13:54,13:55,13:56,13:57,13:58,13:59,14:00,14:01,14:02,14:03,14:04,14:05,14:06,14:07,14:08,14:09,14:10,14:11,14:12,14:13,14:14,14:15,14:16,14:17,14:18,14:19,14:20,14:21,14:22,14:23,14:24,14:25,14:26,14:27,14:28,14:29,14:30,14:31,14:32,14:33,14:34,14:35,14:36,14:37,14:38,14:39,14:40,14:41,14:42,14:43,14:44,14:45,14:46,14:47,14:48,14:49,14:50,14:51,14:52,14:53,14:54,14:55,14:56,14:57,14:58,14:59,15:00,15:01,15:02,15:03,15:04,15:05,15:06,15:07,15:08,15:09,15:10,15:11,15:12,15:13,15:14,15:15,15:16,15:17,15:18,15:19,15:20,15:21,15:22,15:23,15:24,15:25,15:26,15:27,15:28,15:29,15:30,15:31,15:32,15:33,15:34,15:35,15:36,15:37,15:38,15:39,15:40,15:41,15:42,15:43,15:44,15:45,15:46,15:47,15:48,15:49,15:50,15:51,15:52,15:53,15:54,15:55,15:56,15:57,15:58,15:59
2019-04-01,28496,4320,9590,5318,3300,5079,12870,3729,1726,4600,2565,5809,2428,2254,3681,4003,7424,5952,3589,3424,4300,4273,3379,9500,14872,6000,9482,9301,8409,4300,5981,3001,4526,19709,10593,2390,3298,2066,2937,3094,5082,5051,3599,2012,4700,5625,2000,3773,7049,3717,3703,3288,2129,2619,4120,6310,2744,2430,2631,4524,1689,4029,945,5498,1422,7290,3959,6173,3972,5763,3220,3969,2500,2048,1348,3000,3442,3249,1640,28581,2619,3534,3957,2909,8723,8128,4613,2645,3600,3503,1943,1900,3574,8100,1966,2791,2314,3599,6598,9036,1844,10700,3621,1000,2135,2950,3300,1098,4591,7008,13775,2100,4785,1300,9249,10104,4005,4138,2403,6367,2982,975,2310,5084,2900,3370,5331,1200,4416,1000,1470,2086,3073,1822,1889,2361,2100,2175,1263,1405,2203,800,2322,1743,2577,1940,1733,1300,500,1366,1300,1400,3109,500,1364,1525,947,1647,505,1900,3394,2931,3510,1200,1154,1334,1100,2304,1600,700,1300,700,1890,3426,3099,899,1515,1200,900,1100,500,1330,792,1304,2316,1838,2547,901,1550,950,1900,5939,3468,700,900,1700,2600,3300,1128,3452,1900,2100,2846,1600,2316,700,100,2505,1610,3061,2400,2466,1701,700,2000,900,1664,200,4843,2519,2107,1100,4501,1520,1900,1544,3600,4500,1950,1700,5044,2714,1100,4400,1425,2200,1319,1200,2123,2456,2775,2211,1784,7476,1500,1500,1100,6629,1500,1286,1400,200,1300,4878,500,1300,2600,3141,672,2400,2503,4493,13653,9582,5004,7962,5882,1700,1509,2604,8560,5292,3000,4191,2800,2100,4602,3500,2600,17928,5594,11405,5838,5709,4300,9691,2382,1800,2600,1800,3190,1200,3115,1600,3214,1700,3726,1327,2417,1043,2573,990,2785,1499,9178,8732,1627,5750,4612,2500,1600,3915,2750,7587,6400,4735,6508,4770,3943,5400,10947,4700,4100,2645,1626,2800,2150,2700,2000,2600,10746,6660,2596,3350,6896,5345,5304,4057,4043,2739,22752,3393,6581,5192,4736,3658,3809,6470,6241,2612,6551,4918,7315,4621,35572,22869,5366,5183,3850,3875,5640,4518,14625,7595,8392,21629,16553,10606,4070,6465,7589,9103,9421,9349,13518,11408,9810,14653,10797,13432,13732,12098,20559,11634,26805,23076,19539,31686,23274,43953
2019-04-02,26057,2076,4262,2590,3724,7277,3384,1950,407,2406,2100,3809,10380,1115,2000,1898,12250,900,7739,3726,3000,2965,4341,3736,4196,5144,17803,8427,8670,7657,16451,2200,8815,2031,4052,800,2517,800,1209,1839,1570,7500,2684,1016,8200,2498,3408,1100,1280,800,1308,13792,500,2077,2723,2900,1203,1787,3500,3649,4335,4294,3380,1966,2400,3279,100,4343,3000,1700,3917,2802,1000,1120,2525,2805,20631,4531,6083,1956,2800,877,7218,2570,2477,3027,1500,16947,2500,8771,2816,5635,2471,7353,2500,4033,3649,2300,3003,3300,2800,2750,34304,5441,4400,13584,3334,1432,3138,3968,3319,2364,3634,6405,11400,6303,1000,1400,1901,1400,2019,3100,2300,9239,4400,1800,2035,1913,2100,2200,1138,2230,1115,1500,1000,2015,700,2478,3099,2006,1600,2358,3799,1474,1793,1764,4540,1682,1600,1800,2853,5435,2200,1682,1803,2400,5325,3204,1602,2509,5562,2400,1310,2300,1236,1400,4700,2133,1609,3400,3101,5710,2802,1400,2225,611,1500,4466,2292,999,2948,800,2025,1300,1400,600,2172,1100,1400,1880,1700,1300,1154,2200,1000,1010,2759,1300,1744,600,1400,1300,1400,800,1904,2400,2502,1331,1614,1100,1101,485,11456,400,1800,2748,1400,769,1510,900,400,2103,600,700,2000,1300,1015,2200,500,1733,1200,1000,600,5594,1360,900,600,3008,906,1500,952,1940,920,700,1500,1000,300,1100,1600,3200,200,1665,1100,2582,1428,2619,1111,2000,1200,1700,4832,4705,7082,1409,2397,3857,1337,2208,2222,1521,1569,2349,2103,1933,1210,9673,1796,2200,900,2227,2804,2600,1400,1300,1706,1500,2067,600,2400,2682,1100,3300,2615,1900,2591,2306,833,900,3613,2695,822,500,1847,1700,752,1692,650,1858,14884,1045,1342,1015,5090,1700,5877,2390,1116,25982,7050,5448,2750,3148,1955,2906,1954,4414,2409,3381,3215,4115,8519,8734,2120,4240,4895,5961,3152,400,3359,4642,1800,2315,4803,3000,3600,1147,1300,3000,9131,2712,2312,3600,1404,5167,2602,4405,3886,6635,17731,1741,2466,3900,2306,4243,4901,5658,4701,2800,1788,6201,2656,8012,4397,7234,4947,9679,18321,6385,11906,5248,9847,12867,20245,5860,15260,21357,22030,16293,39421,110772
2019-04-03,15971,8198,4691,2435,4456,4200,3326,1100,1200,3531,5011,6600,5800,4598,601,2911,4618,15134,12642,9100,6400,4553,3500,3518,1600,4840,2647,3318,1900,6313,7115,4303,3589,8035,3759,1887,1500,1600,1015,815,2131,3004,801,900,2200,1111,2005,2351,3300,1200,6402,2800,4725,4872,2933,11868,3005,6181,700,300,12428,6211,1400,5330,1220,1781,2897,2817,10070,7659,21635,2410,900,800,1100,3486,2400,3400,3924,2800,5379,4182,2678,7013,17435,4200,5351,3500,1803,4300,3237,6730,2600,4000,2831,1000,4371,1000,3548,1500,4499,3010,2020,4548,1323,3629,2600,2300,3896,2335,3140,2675,2802,3802,1750,3365,7020,4700,3321,5263,3900,1720,2650,300,4005,2500,4030,5867,3386,2700,3160,2100,1813,3045,1117,1586,5485,4519,3700,1300,2909,2600,2300,1522,10613,3300,3224,3218,2134,6800,4600,8563,12411,5711,2900,7064,10374,2677,5330,9127,3842,12785,9190,2524,2514,1500,2713,1400,3110,1000,4900,3130,2790,9800,8800,9398,20134,19685,14084,5306,5924,11080,14462,5403,5073,3202,1897,3408,3169,3302,4252,3899,2220,5950,19833,6326,1800,1600,2900,1886,1900,6310,4336,3314,3554,2024,1668,2540,1700,2601,1580,3899,2500,610,2300,1100,1550,2840,2445,2300,800,1927,1800,1400,1800,2692,811,6998,1717,3308,3584,32343,2509,2500,2005,2465,1288,2689,1600,1700,2900,1000,2469,1852,1300,2800,900,21654,2800,4160,2262,2304,4816,1479,3250,1200,2632,4000,3278,4187,5070,1800,3864,2530,1600,2927,1100,8517,8762,1406,3315,23722,8298,6330,4247,3221,1900,2643,4517,4118,995,1106,2100,550,1721,2100,3987,3430,900,1000,2932,2523,3033,17903,3500,2397,1462,7172,4250,4100,2155,4972,1752,4365,3556,5268,4232,2100,3307,3400,4583,6854,3881,5216,3300,4695,2900,4114,3100,5450,6116,4375,2857,3793,13825,4012,3465,4100,3410,3925,2759,3815,2394,5154,3616,4763,4869,3107,4300,3000,2822,7118,3999,6707,4849,8518,5758,8492,9749,7401,2944,34973,7797,10546,7450,3900,2829,2923,5032,4502,8862,6062,13726,6457,10072,7926,6516,8076,4490,4852,8468,5802,5112,9033,9800,11210,11602,6891,8301,8820,9201,9609,25346,27576,35232,39410,28633,51959,58105,102639
2019-04-04,25979,6415,12000,12729,4600,7247,3850,719,7222,10036,2790,11068,8000,2341,3000,2050,8020,1200,8973,3637,7007,4100,4283,3064,3479,1700,7140,5800,3250,7276,6000,3937,3800,2500,2075,2600,6350,2500,5531,2266,4980,3580,5300,7450,11271,5365,2824,3483,5780,1600,2300,5198,11800,9402,4641,5200,5885,1830,748,27055,2100,1200,4510,4050,600,1800,2103,1957,2398,2400,2000,1666,845,2600,1200,1600,6486,1278,2000,1206,400,800,2000,2584,1700,6870,7032,5302,2450,3587,2700,1900,60400,7500,14700,11600,13518,9802,5800,21144,12701,7630,4672,5119,1700,1900,3200,1871,2000,3528,3226,1700,2020,1003,2297,3857,3150,3033,3800,10964,2600,2322,1657,12300,15231,8606,2487,34689,3000,17320,4608,800,7840,1539,4365,1973,3900,6319,5858,27799,11622,3100,7695,16876,11705,3825,14995,3412,7252,11949,8121,10640,7200,5825,2742,6478,5046,9033,153100,3900,2100,4917,2100,1100,3040,2832,1900,2026,1800,2500,2298,1041,3417,2400,1601,1600,2000,1900,1899,1700,3350,7431,1302,5312,956,2400,1898,500,4154,1800,1806,900,2729,2623,2791,770,1201,1216,1215,3550,4228,1300,3200,12665,1500,5716,2345,2400,1576,2971,1807,602,3000,1100,1819,1600,1715,1098,977,928,1295,600,602,900,1400,1100,4063,2000,6308,2800,9700,11423,1552,2100,2631,1600,900,179835,16133,13223,4083,19107,2268,2766,2375,1100,2700,4676,1600,2603,3100,1554,2400,2700,1410,1802,1400,5900,4800,2900,3101,3800,172200,3100,5000,13607,7840,10765,25388,10109,8824,6500,5782,2789,4329,35127,11874,19546,6562,23719,14238,23066,21294,10250,6704,7734,6351,11142,4595,5135,5430,2500,8478,2128,171755,4911,6433,2200,4399,2100,2805,2019,2648,3364,5389,2131,4085,1900,2302,2990,2400,1600,3700,3906,4576,2100,2507,2105,2937,1813,1800,3300,1600,1990,3439,2984,2835,5400,3313,3270,2300,3270,3099,3324,52332,9535,4622,8272,19977,3209,3743,3521,3824,2600,5731,3263,2114,3954,5068,4701,2893,4114,4211,3100,3345,4884,2200,4086,6061,7412,8521,6804,2200,7628,2900,9032,3767,5997,4664,5523,5100,10705,164354,6182,11619,12246,11429,106904,10537,62231,9200,7701,15809,12391,87423,24230,13080,30585,34773,87277
2019-04-05,24854,2785,4453,8763,4818,5028,1280,8798,5656,4473,2552,8332,2119,2300,700,32778,18518,6500,21100,3100,11115,4307,7400,13912,9197,3800,4870,6300,2488,4160,4839,3907,9760,8102,8960,16165,14320,10457,35581,5821,6949,25746,4654,5184,2205,4962,3427,2288,5311,9150,5053,2427,4007,1600,5808,5975,3597,9728,2244,4579,3609,4563,9292,6135,8328,7600,4600,6360,5331,1300,4428,2233,4900,2400,3098,3436,2110,3792,7183,1511,6314,5503,9037,2400,3032,5906,14912,11727,21162,8145,4593,3766,4723,3666,1576,3000,3625,1738,3714,3280,3015,5298,7638,14027,7081,6397,7122,4262,3564,5531,18894,5016,3928,3169,13378,9588,5951,6400,11098,10191,5333,15447,7949,9363,23943,13645,6746,14356,11025,13526,7080,8240,5328,3591,9062,1977,2449,1785,3280,800,2926,2054,4669,5049,3262,2962,1834,2300,1766,3432,2192,5908,2211,4000,2300,2400,1900,1221,1600,505,400,700,1201,2423,2147,3635,1602,603,4035,1800,7038,4947,9404,2274,2871,3065,1512,2430,2106,1938,1279,1115,1879,3118,1837,1314,2009,1100,6812,2515,6239,3500,3412,2400,1919,4916,9423,3644,2459,3916,2734,2600,2684,3197,13311,2014,4584,3876,3871,4103,8330,10328,5506,7160,8713,8371,8445,6431,10857,6508,7378,9501,8337,25684,9560,18209,11330,7511,8078,3394,7720,3159,4000,2888,3452,7093,2590,12386,8573,4808,7301,12249,5078,2156,2320,2400,2202,3211,9542,2600,3858,4411,5392,6691,6000,4848,3289,3310,3436,3202,2800,2780,7053,8771,6282,2600,4135,7462,4038,6612,4381,3775,2625,8374,4095,7460,6318,26707,5477,1425,1427,14598,10915,2162,3107,5298,6454,4309,4994,3889,5419,6193,1995,1805,2817,3853,3672,4049,4807,1965,5038,4864,4466,6735,8166,4579,4010,4495,2795,5400,7173,2918,7826,1993,1606,2162,5685,2801,1705,6107,2602,5293,1315,5924,3700,3441,9998,12425,11163,10301,6447,10142,3628,3423,25489,10283,5725,7771,2451,8435,4723,10515,5983,4431,2524,7638,3367,8357,1702,4320,3326,7077,5077,3155,3983,8263,6116,6762,4078,6765,8404,9122,12745,8017,9236,8260,10506,6956,12295,24958,11153,11650,6840,12420,10740,27138,14601,10379,14704,16007,20862,19642,20408,21641,23426,49544,45180,52751,74764,149916
2019-04-08,34988,10394,11963,14409,21029,9276,10452,11715,8900,24695,13290,11069,18711,15875,9722,23319,15102,12382,27441,19813,25483,25183,54471,34311,30890,15422,28911,23020,18156,12579,9639,23065,10375,20549,8726,24561,10342,14729,3900,20632,8542,5024,12874,17129,2392,9343,6935,17149,17760,6101,11374,17055,5250,2700,2808,6100,4057,8899,8575,10461,8257,7354,22095,9076,16998,7934,6176,5856,6689,16758,18906,8042,5704,4690,6215,9793,8672,6104,5397,4634,9996,19479,8913,8813,6014,9794,6665,7813,10819,7710,2250,9220,21412,6570,16308,17444,16540,21592,1900,26949,106134,4107,36798,16556,16975,6484,4300,6952,4301,5040,3268,2824,9422,4670,4150,4127,3448,3518,9187,4023,12099,4371,2686,5099,3800,4624,3700,6195,3518,1900,7880,6502,5251,7716,8602,7157,9891,1878,8833,4352,4522,4661,4327,4734,2625,6022,3575,3616,4270,4731,4669,6747,8593,10804,6885,1512,2613,12713,2600,3770,6769,3844,1986,2012,4486,3358,2700,1930,500,1703,1700,2062,7899,12282,15259,11175,15609,4326,1300,6983,2371,7399,5509,5500,7333,32190,4000,3532,1622,1239,3778,20284,7320,5500,6105,4700,9338,7700,2132,8692,3600,2005,2965,700,2089,2407,2967,2084,2801,1500,1632,700,2180,1988,1611,1550,1245,5204,3200,2100,1500,1900,1105,2553,1100,4750,3085,1900,1479,2300,1515,1806,1247,1197,2000,1872,902,900,2377,11956,5798,4411,5910,1800,400,3810,6480,4107,4735,1663,6980,2211,1973,4842,1924,6332,2234,3675,35011,13559,13486,4907,9477,22210,16429,3717,1612,4485,2700,1000,3538,2035,8342,8573,17606,17709,20591,4499,5972,2500,3425,2800,2714,2300,1113,1831,2200,8250,2460,2310,2728,23172,3000,8464,4192,6500,15126,5313,9554,5300,10234,22769,17638,12056,4610,3034,2494,2671,2662,1300,7357,4862,4084,1000,2356,5617,3600,15033,1300,4310,2442,2750,2002,8047,1013,2185,1717,3663,3488,2967,4551,4414,2716,4790,2156,4701,4000,2505,8983,3740,3200,1768,5400,3238,3669,4080,2150,3124,2502,5171,8592,3087,8085,8336,2569,9290,2659,2919,3424,5921,20181,5468,4580,8415,2644,11534,4725,17066,7196,4485,16648,7718,5728,3091,6579,16007,7776,9310,7726,9643,6842,7244,12870,12028,10516,20573,16503,34212,34933,200454
2019-04-09,26454,6282,1500,2740,5750,7795,6520,5646,10757,16526,6349,7100,2100,1900,6265,30500,5341,19531,9366,5750,2100,3840,6140,7300,3600,3219,2600,6000,5740,11855,13476,4576,1800,3306,3076,2343,5325,4077,6882,600,4201,1600,37567,3526,20578,3803,925,5400,3350,2621,5060,12478,2200,1000,3803,2500,1000,2400,11597,2413,3000,5075,3107,2100,1400,1100,2958,6521,33151,1800,1300,2538,1300,6600,5056,2600,1300,3525,5204,2439,1400,3400,4391,400,2700,1200,14128,4844,4282,1430,2330,300,2141,2593,3232,1500,1810,761,4526,700,5642,6153,2700,2945,4544,3893,5600,2500,13468,9249,2735,30665,3097,2200,9727,1839,900,728,4300,800,3300,9600,12564,5883,10819,5822,2700,4000,1930,1551,2400,3899,5622,1695,5615,8761,4124,2961,3700,13023,18300,10224,5023,10933,26115,8317,7129,6616,1815,2696,4600,6582,3621,2308,10310,8106,900,3810,6740,8256,3783,5111,4874,4300,6771,7187,9170,7111,11679,20865,3906,5211,5292,8098,4402,4211,2348,5443,2732,2700,12892,4929,8896,11383,6351,5719,9202,2795,4914,3887,5746,2629,11141,9876,5676,6608,3397,3605,3600,2772,5449,4732,6363,4000,3439,4459,8602,2580,1500,4825,5400,3000,2300,2562,4030,1500,1600,6657,4000,2611,2700,2895,2465,4283,2134,4410,2932,2100,3893,3200,2504,3804,1998,4000,2970,608,4600,2722,7450,3065,3608,1800,5386,1200,9791,9461,15241,10671,19835,9357,5000,6080,1411,1700,2700,2043,6169,1600,800,1200,7765,7300,2800,2829,4998,5127,2438,3483,2236,3461,5737,1804,4934,3209,4830,2989,1718,6242,4429,4300,2460,4163,3144,3200,3733,4901,2837,1367,6286,3100,10246,3900,5228,3542,9097,5903,11568,5866,3482,4681,5142,2350,3837,3869,1700,4904,3231,3908,4124,3997,8335,7054,13884,16005,4296,7397,3064,2812,2993,4575,5119,3400,3533,105057,8907,2100,4100,2403,6801,2800,9244,11843,3815,9508,4562,9754,7641,5314,7149,4765,8036,6214,4591,5778,1584,6895,4564,14831,11190,9321,5538,8393,15256,7850,5790,4999,5030,7063,14735,6721,7441,8637,6240,8022,8018,8785,4456,7605,10199,5926,10289,16259,10620,8257,8866,15626,10399,12204,8715,7118,28773,15984,36393,20912,16243,31500,23220,40725,49240,103411
2019-04-10,17435,300,3323,7569,7254,10900,13854,8000,6713,1800,2337,4300,3410,2950,10516,1814,5748,2528,6500,3200,8871,12839,3850,2800,9023,2129,6155,4951,17593,42687,16988,8100,2600,4018,6005,2539,22490,7115,3000,3101,1401,2530,3003,3000,3790,3288,10725,7201,12400,18870,22681,8812,3023,4300,2300,9188,4692,3000,1000,2218,5105,7500,4900,2500,3000,10071,11718,2300,1900,6270,14900,25324,3200,15622,10028,4162,7950,6442,4745,13687,3945,21802,3401,2742,2882,2300,2600,2679,800,1614,1705,3818,1600,8473,12500,2457,54422,5263,2950,3121,2872,2721,4804,2500,5951,2412,5389,3549,6700,1400,6335,3295,7687,4267,2700,2200,1400,2126,5105,3600,1200,2300,2880,2300,1814,4113,3117,2330,5577,6400,1500,3500,2550,6400,1362,2000,1900,9222,2876,3100,1635,3830,1924,3124,3360,4613,5345,2200,931,2814,4349,7454,3150,4060,4795,1450,20307,13132,13300,12900,1500,1500,8953,1500,6006,8845,4415,1302,3769,436,4437,3100,5680,9192,25102,14200,5159,5872,8484,5900,5400,3333,5400,5799,2200,2224,2212,1200,1478,3505,3000,3667,8736,2189,2128,4320,2846,3904,4981,3800,1965,2500,1510,8150,3518,2300,1464,3381,3850,1400,9160,4233,11400,3303,11416,3505,2300,41505,6243,3311,28500,3500,1000,27101,7300,10943,1870,2466,2276,4124,2947,900,3700,1100,3385,6081,5762,2501,6232,1600,2300,1746,2600,1429,2588,4863,2018,3000,1500,4588,2322,1500,1500,2000,3000,1200,3050,1959,1300,4302,1531,1603,3000,1500,1905,700,1200,3682,3599,3931,2800,1704,4071,2400,4000,2825,5194,1894,1900,2991,1200,4155,1300,5818,3571,3202,3159,2253,5031,34707,7799,4969,6757,5397,2508,1600,3700,3667,2099,7299,1600,3150,3899,3100,2117,1400,4800,4800,900,2700,3258,2848,2200,1878,2600,2276,2400,2929,11594,1500,4668,3455,2902,500,575,3502,2497,2200,4639,2399,2500,4897,5816,2700,26353,3700,1400,2122,2038,2900,4515,6593,2900,2675,1400,3825,1094,2599,2442,20600,2566,7330,4354,2938,3968,2900,2518,30402,5182,2212,5142,2161,5178,4767,2942,9865,6749,9201,5585,8006,5270,16426,11842,8606,4500,22508,13721,11265,10165,14120,7601,16384,15927,12347,17425,23500,24590,22982,35672,62204
2019-04-11,21793,1700,807,2400,8245,6002,1997,900,5550,6900,4790,1900,2339,319,1808,6808,13742,5000,3100,1000,18583,100,1900,1020,2200,1400,10203,3300,5100,10100,4766,1600,2050,2300,2030,700,2824,900,1000,1100,2000,2800,1530,5149,1487,3809,425,1551,3157,1661,3013,1500,2690,3146,2108,23795,3200,2100,3733,2957,953,4500,900,913,3500,800,900,1026,1700,1316,1200,1400,4781,3000,1327,3100,5442,1800,3033,1440,1500,1710,900,2221,5000,4510,3302,4915,2500,3000,3769,2400,3800,6416,6783,5233,4213,4800,2570,1710,4613,1319,1600,3885,3600,4891,2800,3720,4944,2618,2105,12929,8238,2900,15588,9085,5785,3400,6094,11669,8296,6200,8174,3800,1677,6936,7000,15905,3864,9488,8715,9226,7079,11200,2200,7967,1671,1400,6905,4846,12100,2100,3615,10420,8220,13234,1505,8239,20389,5589,10599,7564,2198,7351,7828,4990,13227,1405,22207,5421,5114,6787,4316,2975,1285,2683,15135,9900,2010,4800,2523,9564,21879,7978,11408,4500,2499,7904,8321,11539,10162,32828,4852,9679,6780,13785,2929,3900,9079,7289,10400,12259,7077,7162,2632,4117,1101,200,6000,2046,6619,13055,7900,1976,2500,8866,5636,1000,1900,6519,6700,1538,3223,8285,1800,2000,1300,300,2417,10415,1700,2703,1100,9892,4817,987,2290,13050,8359,23900,18200,2000,15652,27546,12839,8400,7596,8623,11897,3600,12695,835,5999,834,1900,4417,1000,1444,1039,2111,2199,2951,4014,1554,2053,3300,4509,1747,10757,20900,2500,2500,1704,1500,3232,6450,1670,5300,5300,3352,1300,400,3013,2500,2971,800,1300,800,3194,1100,1700,2200,3389,1930,1919,700,1713,1800,1978,2400,1759,3117,3827,1800,1512,1426,1300,600,2000,1547,1300,900,1400,2300,2024,600,1044,600,800,1100,3080,1656,1000,1800,400,1250,700,600,1458,1354,2579,900,2206,2589,1600,2300,1700,906,1102,1400,3900,3100,7664,2900,1600,2505,1175,800,400,3367,1575,4500,2735,607,1100,5801,1400,516,600,578,1278,1500,8196,2014,3152,3100,2100,400,2617,700,2001,8825,900,2163,1100,2624,1559,2313,2500,4371,1200,2965,10976,3200,3173,2420,5362,7989,4226,10334,7334,15602,7100,13876,11380,8620,11760,11891,26350,87375
2019-04-12,74265,36872,29552,18524,21686,33544,20541,14755,19383,6700,19975,18226,14646,13670,11288,9747,11087,11369,50900,19822,39080,10778,5643,12171,13636,11227,24402,24246,19553,12676,14021,17753,24352,16350,8300,9335,22455,10409,9026,14388,12228,10742,8145,8249,4531,10370,5458,5109,6539,6299,9650,6266,18858,8705,12122,3601,14837,5876,2523,4046,7563,22590,15739,150422,262669,6800,6457,7439,5575,8420,10344,6299,4737,13245,10951,7342,9993,5910,4110,4597,7091,5357,6635,5739,3851,4000,8051,4312,7545,4329,2487,10296,4398,6458,5952,3151,8155,3380,1400,2100,5472,3303,3491,8162,2400,3893,3985,3584,5133,2500,2815,7500,5000,23326,6693,8937,2107,2949,2996,4292,4000,7476,2896,27982,3177,3819,2418,4736,2475,5707,4214,5513,2112,2931,3697,3740,2365,2900,7422,2340,1701,7339,4287,3427,7245,2827,5500,2325,4118,2199,2704,2983,135635,4940,46900,2474,3088,8461,1535,3677,3007,4297,1600,3649,3394,4804,4030,9573,6436,4167,2431,1589,9441,6599,2526,3262,1304,2727,4257,4903,5445,5800,2180,2203,1844,2050,3400,4160,3895,5600,11402,13704,16331,9094,20841,16839,20994,12622,22731,5951,5214,3741,4697,5793,4688,10109,6199,30215,12398,3837,7250,20227,14676,63081,5100,8712,6703,4648,6966,18490,120601,5870,7127,19393,6908,4434,4272,10555,4930,6200,7962,8371,7762,3527,14293,12816,18399,19419,13780,8808,16435,15000,14568,10979,5499,6302,9840,5342,7675,5689,13923,15114,13342,12726,20503,12389,7095,16526,9949,16062,7463,6815,25756,265300,2611,7497,2999,9639,23864,9579,6600,11826,8495,4595,7872,8033,9524,5561,4200,12643,6805,8489,5950,14558,11989,7989,16231,19230,10244,14574,8428,14846,8180,5551,13758,11858,6694,6536,2108,18741,48303,82271,4658,6040,14555,6352,7721,5094,8807,8476,26728,5887,6523,62817,11108,9113,16379,18026,7498,5867,20472,41586,26811,90932,8841,10555,10799,12331,13589,8445,13294,8905,8967,13060,16816,11180,18458,8950,9571,10530,10279,13524,35703,12153,11967,16349,13824,12865,11940,68541,10646,15616,38459,68234,9609,10983,26963,13235,11270,11881,18786,8546,13119,12091,14769,11108,21472,24082,25038,20568,16055,13387,22020,17726,19906,19539,15663,18279,19234,16982,16656,22307,26834,25896,23516,34691,25004,36966,55309,119522
2019-04-15,39601,10232,5616,20180,7384,12578,13647,22731,5832,7812,6300,6222,9219,8728,8515,6309,3800,12901,6601,4739,6909,8099,9029,11996,5288,9053,35816,20526,5679,5200,11636,7752,14428,8870,9411,10987,3677,20526,7802,4512,6100,7901,3300,4397,5001,4401,6451,7243,6292,3100,3841,8500,26370,16458,9777,6486,7864,7771,10120,5470,46022,11175,16624,4880,2694,1925,2000,4868,5142,5225,16378,2275,3602,3900,2432,2200,1400,4851,3725,8057,8496,4551,6000,7518,19841,7923,3125,5573,4257,21796,19190,5606,5215,3719,2700,14591,3900,7725,7100,5164,3190,2444,1600,7354,5221,9798,36431,7718,2800,4812,4135,2996,2544,11800,2205,4437,3092,6139,2600,5326,3100,3250,1185,5832,5160,1400,3000,5300,4835,2900,17187,8831,16115,7796,6603,8151,5302,15446,45708,4296,3945,6139,7847,4451,3017,2215,9709,1760,4055,1300,3540,4025,4327,9596,2900,13576,1300,4500,5928,13270,6003,10795,3200,2105,1800,3663,1800,2243,2575,4300,1609,1400,1500,1894,1800,5442,2596,800,2120,1300,4100,2517,4301,6705,1600,2100,4633,600,5406,2000,2145,16735,3300,1598,2302,2900,2100,1301,2219,3000,2889,1400,2764,4600,1600,1800,3458,1900,2868,600,4900,944,3318,3586,8913,7210,1700,1900,7090,1700,3745,1202,2562,5652,10441,2746,1990,12500,3346,1200,26505,4856,3259,1000,900,4100,1500,2020,2658,1000,2600,2150,3932,3500,4663,3315,5352,1700,4600,4000,2113,7730,10808,1908,3264,6601,5804,5234,2630,1101,4301,1210,7218,3547,1605,4900,3282,3531,1516,4753,6484,4481,1610,6351,2520,2685,4530,5923,1709,3676,4804,3278,3720,5570,3337,1300,3206,3830,2115,16423,4676,39983,5701,2100,3696,5445,1400,3513,2221,2980,3700,2881,2430,1400,4815,4524,7077,6076,2100,5901,2520,11188,7104,5456,3821,12645,4742,47717,4290,43626,5823,4697,4300,3835,4030,5617,3400,5100,1851,5000,3481,4632,4278,7208,28442,4915,15305,3009,2400,3598,4009,2494,2502,5000,2958,3720,4282,8961,4000,3300,3880,23306,4723,4163,2797,5299,3700,3997,6270,12625,9058,13406,3754,11161,17837,10200,16775,8275,10866,10516,10034,10700,14656,3864,14362,21003,16841,18482,30228,12320,42670,12911,41083,53974,24823,33393,33882,56032,87130,230374
2019-04-16,27436,7216,8504,4905,10121,10165,4000,9698,37581,21277,10884,9858,5975,9679,4762,3876,4033,3627,4198,4000,5308,5400,10204,4351,5599,3192,13072,8641,4227,2300,48100,28675,15156,6300,6799,17400,6576,10290,30901,5126,8078,3150,4457,11534,13100,31259,6394,7296,5095,17212,5830,8586,5000,5481,5000,11335,13056,37143,5251,8300,5720,4706,1670,2397,5592,5280,5100,3926,4437,3593,6337,3146,4957,5800,6140,7338,5630,6926,5300,2016,6000,6831,1162,22045,6300,5120,6112,1900,2776,7530,2200,4725,6128,2050,5522,3434,4971,3000,29514,6295,49611,6677,3850,5000,5600,3500,2700,1400,2787,1710,5900,4198,3828,1785,6650,2592,3800,2315,2430,3600,1150,8316,2000,1402,7611,4407,3321,3284,6092,7530,3059,1200,3309,3102,2300,3102,2418,2100,2900,1600,5571,4426,2903,3782,4229,4800,9923,8633,6731,7078,6671,5476,4028,4651,7026,3813,3802,5471,5242,3324,2677,2815,3652,2080,2104,3966,3776,2799,3634,5001,2162,6419,2278,7872,4525,3690,3570,3443,1902,3400,3524,2700,4417,4100,3860,5271,2418,3008,923,4324,2959,5911,3870,3309,1400,1500,4582,2700,1068,2000,2000,1661,1400,26050,5198,3086,2420,2300,2210,6196,2430,2419,1891,4750,1300,4516,1785,2687,3100,800,2080,2312,3255,3549,6000,3738,3030,1126,4950,3569,4415,1400,1508,4031,2551,1694,2620,2794,3785,1093,6125,2800,377,3425,1798,826,1100,8355,2334,3302,2532,3762,2262,2853,3862,4546,6648,3600,4480,6300,417,4672,2999,1100,3340,4211,2700,1951,2500,3338,2800,7702,4753,4630,4046,6128,5600,6912,2757,7231,3332,3182,4760,5612,3348,7648,9009,5822,4258,29492,6306,2388,50869,3052,1420,3328,4538,11404,2897,2500,3195,1739,3090,2500,1323,2200,3500,1104,2323,3508,2222,1900,1800,3053,1500,1800,1900,6424,5202,3088,1100,3100,1533,2963,1600,3045,7028,2240,4258,1597,2654,2200,2330,1929,2611,16611,3701,1600,2000,4399,2806,1100,2019,8551,2600,1325,3188,2700,5057,3088,4839,600,3872,2987,3680,5606,5100,9239,2900,3483,3388,6309,8418,9032,5330,10000,4740,7155,7108,5802,6849,5356,4878,7910,4440,9646,8851,9751,6108,7965,10567,14117,9921,11255,11786,13481,20291,24582,28934,65546
2019-04-17,37397,820,8736,6248,3830,12750,11443,6254,12925,6800,4000,26463,3800,4259,10917,3500,1700,1275,1200,2313,1500,8100,2500,900,1800,1870,2100,1899,2300,0,6277,5871,4168,4357,10486,3900,1200,2100,2100,1800,2585,2800,2421,5412,3000,1739,2300,6353,4741,5850,7385,3400,16845,3163,1900,1100,1400,2304,1001,600,4830,8753,1300,3700,1800,6154,2900,2680,2833,4522,1719,1603,2145,1300,2251,4242,2155,2200,2196,2185,2744,1900,2900,2654,3170,6443,2812,4346,1832,4150,5589,3200,3160,4566,32700,8630,5922,4752,6348,14445,4609,6450,3100,16572,2299,3500,3010,8700,3500,33992,2307,4400,4000,3600,5300,5097,1308,2733,17295,1600,4800,7635,2732,7500,7161,2078,1800,3100,6200,622,1400,1192,2755,2300,1205,3609,4427,2300,6340,3364,2000,19347,1900,2951,2677,2505,2000,2900,2638,1704,3166,11050,1709,1700,2600,4293,16038,8312,12208,12025,5404,3910,7588,4900,2153,6000,3687,2887,8431,5200,6261,5259,27261,2000,1700,1800,8074,2394,4036,6450,5637,5328,2800,6800,6307,5346,6714,3500,7165,3361,6741,7701,14620,5548,3606,2146,1100,1803,1200,1900,2400,1809,1800,3511,3900,2300,2500,1932,1950,1900,1009,2500,1637,2576,1200,1000,1301,1300,1800,1000,694,1000,2885,1100,1986,2600,1477,26611,750,3030,1600,4774,6426,4801,6013,62129,7176,9106,5609,10400,2800,1100,3783,900,1100,1400,1300,400,1165,700,1600,1000,1623,500,4488,1900,4426,4630,900,1500,4250,1634,3200,2424,1591,3492,900,3041,4258,4700,900,1700,12463,1700,1300,841,3454,500,882,1600,2800,7404,2295,2292,3748,2393,1850,1426,1595,600,2565,1700,1800,2337,1962,1870,3500,1650,1200,1300,2240,500,1200,1650,2650,1426,2600,1403,1200,2800,1900,3100,2300,1400,1858,3002,2650,695,932,2040,4075,2300,700,2887,3149,1819,1900,1221,1000,2382,3672,1300,1500,2700,2195,4565,2300,500,3205,2000,2650,4700,1500,2677,7077,4600,3355,3200,2451,2300,1633,2582,3700,2300,2750,7745,5015,9811,4505,2100,1536,6031,1889,5332,3717,3856,5451,13559,4077,4609,3438,5176,4900,5441,2634,8266,9671,8375,5428,7117,9705,17975,8291,18112,14586,16520,10297,18222,31791,48367
2019-04-18,121529,2835,1300,1700,7200,3400,2260,6300,2054,3200,2828,1200,2333,1288,3400,200,2200,2200,2796,4261,1000,2200,591,1181,1800,8500,1100,2113,2300,10025,1100,7440,19725,7100,2600,8600,2956,3600,4415,3100,4089,2500,7414,2000,4295,8268,1600,1100,400,1300,2400,6196,6620,5900,2200,3948,7402,3600,2300,1900,12735,4043,2600,3718,6686,2230,800,4642,1300,600,1900,3021,6000,8393,9503,3082,3100,8701,8972,5909,17020,6600,7190,4100,10200,3500,8600,9143,33338,4900,3979,2900,1620,2300,6000,5500,2800,3570,3305,2600,5632,4339,2700,3476,5970,3900,3200,1931,5600,5800,1920,7764,3388,3424,2300,3900,1300,4100,13700,9430,3122,10987,2617,5090,3800,6966,676,2978,3722,8860,3772,2800,2734,5301,5400,2458,1803,57400,5890,8585,1843,4908,9450,5885,2627,4800,1500,5260,3116,1700,2568,62439,19462,14047,24102,33456,49661,10400,11145,5438,2050,3258,2752,10248,2800,1950,1551,2445,4240,1911,1699,7791,2100,3748,1400,3700,3029,1700,3825,6432,4270,1673,1500,717,3303,4436,2464,6770,8359,2253,1600,2000,1095,2401,1056,2264,3500,4200,7747,900,1078,3208,2600,2333,4400,4309,1000,1759,900,2919,2816,2908,16473,11987,2976,2026,41451,24005,1752,2442,967,3500,4866,2827,1500,1812,1213,3900,3199,3289,2524,3455,2028,3251,3584,1795,3465,1835,2898,2316,3320,1328,2970,7097,1547,1941,1324,3188,3490,4020,4096,2622,3388,8645,2587,12204,1800,400,14199,4100,5343,10990,400,3560,1800,2277,5371,2649,1400,7302,4560,5924,4445,2303,3161,3088,11300,413,3068,1841,2390,9978,2674,4098,3000,2198,3632,4794,2799,6518,2538,2072,2569,4171,675,4861,5868,2701,1374,5768,2518,4506,1626,4972,4788,10393,3994,4771,3670,2300,2301,6678,5273,3301,9000,2543,7967,7457,34467,11464,7031,6684,4192,2500,1753,7782,2135,3863,2218,3012,2780,5111,2005,4082,10246,3632,7454,10008,24036,11963,9749,2568,600,2795,1512,3416,6443,13834,3125,1100,9514,9463,11398,14691,2168,2896,13352,3734,2738,2571,12302,3324,8837,4341,2514,6539,5369,6790,7271,4375,4783,4330,8197,14495,46262,40743,12718,20911,17595,9126,25700,17970,14997,26760,17607,15920,23187,23259,36696,65397
2019-04-22,31567,6400,10429,7646,7033,7902,3671,3700,14077,8518,12689,9088,5644,5109,56719,2235,3949,3600,2200,7341,900,2400,3249,3712,2845,5500,2102,2344,1507,1400,5847,26162,300,1812,3653,100,2920,4543,14576,9200,3316,9619,5240,4364,1820,1789,3728,4484,1654,2170,2350,9691,12060,3500,5059,2853,6925,16607,6405,14891,6280,7006,10833,33949,8566,6208,4739,26627,4248,5181,4600,4111,1953,1725,12269,4521,2822,13963,17448,1858,5034,5300,5921,5789,6051,18412,3998,4900,2101,6000,4912,5120,2400,4134,1000,2137,7031,979,3256,5973,5381,7981,10613,5545,2675,4681,2586,2510,3034,2909,4126,3471,8291,3232,3155,4925,2500,1778,3362,1735,1744,4507,3344,4027,1900,6711,12583,3192,5091,7154,11464,5500,1805,4450,1126,5365,12548,4733,7558,2770,6655,13892,8297,11390,17493,6186,21234,32603,20129,8820,4853,5508,3701,2962,7644,8044,13966,7542,3452,7231,2896,5174,5642,1708,5048,8909,2200,1600,12621,1800,5734,1617,5100,2581,2443,8291,4263,4347,2712,3835,3820,9287,4424,4264,3800,3001,2584,1076,8048,2535,4729,2100,2572,2878,1400,2900,2908,600,3800,4200,1300,4006,4000,3321,3971,3200,8500,4280,2741,1500,2438,2934,5000,9185,4318,1200,1789,3775,4255,5523,4151,2205,2900,1387,4551,1735,1100,2049,2410,9421,2110,1736,3463,4036,3500,3825,4300,2800,3905,6578,5201,900,2640,1909,3257,1681,3727,2112,4098,2375,6294,1200,1302,7658,4301,3062,2300,1700,3500,1800,1098,11330,12681,14136,406,9384,7083,6365,4935,8723,2482,2560,3428,1082,3222,1775,3981,886,2311,2010,3400,3203,4321,5250,3142,3231,3537,1000,1985,2896,2800,3218,2618,4302,1869,3262,5644,3445,6095,6067,1600,3044,2850,2716,2834,2600,2158,3200,1687,4601,3409,37217,5920,7813,6741,3614,4761,5548,3887,3162,2813,1911,2682,1535,3928,7231,10638,4933,6074,6244,2736,4656,3432,2500,3894,3055,3804,5622,6136,3900,3858,5509,2539,2367,4226,2295,2524,7254,5165,7215,3798,2900,3711,3181,4590,4906,2124,3392,6158,11209,8354,18050,11280,27844,7285,8658,12549,7699,10097,8856,8420,5088,5875,5480,16888,17468,12285,10005,12063,14817,12058,15812,17994,17354,17463,24411,14518,28682,61222,116403
2019-04-23,30011,4344,4682,6978,7055,2320,11375,16357,2400,5728,5263,21483,4500,6030,2200,14556,13170,12152,4028,6804,3042,8428,2000,6873,3900,3200,6238,102873,8751,16310,5604,6496,3168,4975,24158,37397,6600,11226,6980,33509,3198,11903,4061,15429,17658,17517,13154,7339,7485,6160,4854,10375,3876,4403,9536,700,2216,4344,1620,2300,7138,3715,2006,900,2200,1700,2299,1016,2986,1450,1988,2135,3910,3557,2430,2426,3454,2800,5428,2400,2932,6901,4000,15106,2306,1686,5096,3559,2513,3300,2300,5888,3355,2882,6100,12207,4600,6497,7100,2100,3953,2600,6135,2100,4787,5124,2402,9212,1300,2900,10600,2224,2600,8227,10517,2300,1500,3926,20800,3800,7994,5006,6250,4112,2835,1600,3546,2200,1600,5719,5000,87403,3544,1700,1400,2897,2112,20958,3300,3443,3325,11723,1600,2400,4578,2175,1600,9785,8506,8910,3928,9234,4822,4935,3998,6535,7613,6302,5416,2000,5202,1805,2652,5615,11360,10471,936,4501,2955,6011,3376,3744,5313,3267,2315,4362,5573,4213,3422,5278,3900,4800,4917,2700,4556,3483,6825,8327,6217,4509,5889,41776,5557,5285,4057,6121,6565,3900,4794,6073,4167,4316,4639,57135,6279,2600,3190,3281,1916,3305,4359,3535,48189,4997,2200,3800,4266,4117,3040,2500,3610,5727,9723,18474,16798,6710,6576,12102,14000,7409,12500,10271,12500,9100,14835,9486,3993,9021,5169,2227,59032,5305,4451,4720,2879,2200,3414,2200,3583,4432,5186,7037,4250,7343,8455,16138,5924,7000,3400,2003,7501,3568,4009,3071,1603,1100,3271,2220,1500,5671,4300,10123,2639,5320,3320,3715,5377,7111,1827,14990,33388,6105,3614,3998,3298,7971,7695,4998,2500,5441,8094,17012,16318,9834,7292,17862,4634,7984,6737,109015,1881,3489,3699,2700,1201,3293,1469,2426,1450,5473,1861,2746,4800,4493,15678,10130,1300,10219,3049,2400,1300,2530,7700,6800,2300,29250,21168,3828,14674,6944,13074,1798,5639,3396,3107,1700,2100,2244,3200,3308,4991,3601,2700,5756,4700,17911,3433,22876,4853,4308,4246,2683,3310,4000,3332,2426,3788,4731,4805,4578,8351,5717,5237,6462,6951,5823,6108,8004,6582,7322,13974,12293,8499,12591,7545,17248,9438,12121,16136,8893,12204,22450,30357,14709,22845,34013,23353,30341,41411,89602
2019-04-24,519886,48600,7028,5249,2800,3844,4000,2400,3958,1800,3808,3531,1898,3200,5719,4579,4790,7946,2864,3401,79200,10865,11764,16220,1000,4545,1817,15431,2146,1378,4289,2400,5114,7000,26689,5500,1811,5134,4732,8575,15965,3168,21581,6613,2320,600,2320,2500,1700,1100,10400,38886,1899,5719,1780,1241,5800,3100,4180,2500,3648,2649,400,3153,2950,3710,1500,1300,1124,2198,1449,2783,2436,3025,6181,9406,2620,3816,3265,2105,3303,1085,4949,16083,19275,7854,3796,4408,10994,11068,11124,9617,10564,9387,5152,5070,4071,13159,16336,11628,4397,2127,3200,1950,4208,5246,2565,10639,7392,5816,15223,9486,3532,9831,2064,5174,7593,8306,8144,3696,2754,1600,2207,4237,11825,3597,693,3988,2600,1424,3050,1610,1328,7761,4585,1769,4120,900,1339,4963,1460,600,3835,5023,3863,1929,1500,1314,708,400,480,3712,3950,5430,4544,2173,3285,700,2000,400,1816,3094,2889,2903,1702,2309,2700,1532,2300,4006,700,6013,7945,4184,2899,1349,500,712,2727,1449,7624,3596,600,1859,2642,4612,28092,1050,3119,10587,1184,3856,3585,1286,1060,2438,1112,500,1240,662,1000,2134,1500,888,4536,1708,1400,1412,3214,8392,15602,4857,1310,500,401,400,3373,2889,286,1345,3629,2856,1051,11024,7657,6084,2673,1109,2277,1285,2130,2527,500,1118,4076,325,2005,9400,40600,48601,14904,2200,2887,2050,400,2118,500,1784,1500,2654,3664,7424,2513,3872,700,2000,48515,1170,500,3547,2523,2505,3450,1882,3157,6204,5548,2777,1500,1209,4755,3200,2100,2286,2513,1800,3600,2400,3133,1800,3200,3516,525,2490,1300,3485,3242,1314,2410,1100,1706,3359,4100,1502,2983,2000,4652,4718,2120,6332,4307,2268,3607,3543,1964,2562,3189,1892,2600,2400,600,4927,2524,4548,1800,4595,3578,2906,2400,3200,2070,2516,4443,1805,2939,1100,3474,4023,4174,4992,7803,2400,2366,2325,20725,6641,707,2732,3227,7085,2957,3395,4061,4703,8550,2200,4556,910,2371,5936,4676,3425,2500,3900,3164,1769,2476,5092,4085,3917,6822,6413,5761,5281,11545,11839,3550,2835,6760,4381,3968,4431,9906,4301,6903,4136,10635,11280,7224,8274,11099,12459,10756,11033,25618,31921,35245,44762,48245,100377
2019-04-25,24888,1427,3200,5013,4432,2250,3367,4386,5200,3803,5635,5531,11785,13531,9262,3754,1100,1670,2378,1500,600,3700,2810,3100,2507,6155,7669,4080,2500,2105,3485,3800,2500,900,5868,2871,6349,1400,12825,2900,4403,5695,9080,3159,2100,2788,1900,3436,4574,3863,1400,4310,3400,2722,5164,3400,4506,1841,1800,4289,8471,1800,3087,1600,1715,3420,33300,3301,2689,2235,4002,1000,2400,2432,21575,2650,1516,3200,1500,7331,2140,4774,2200,3243,10900,4982,2166,1700,970,1321,2320,2300,1700,2940,3200,5895,11271,24784,4778,2496,1452,4040,2900,2677,2000,2819,4878,3600,2192,1600,1300,2500,2605,9350,7100,5700,2700,2600,1900,2600,1900,6937,2100,9840,7100,5896,4500,2679,1700,10665,4220,1500,3455,1300,2552,3214,1700,700,4600,6172,4685,2918,800,1438,8000,9040,18978,6426,2830,4240,2050,3100,3300,4610,2000,1800,2000,1800,1800,1205,11400,4142,1300,3150,2200,3735,8038,3100,5000,800,2800,10503,1700,2000,1261,941,1300,1200,2028,1659,3000,600,2100,1200,2000,2350,1839,1141,3100,1600,2795,1300,2400,400,3002,2300,1800,2600,1960,1533,1900,2700,1700,3224,1885,2300,3025,1500,3200,2863,1600,3100,3601,3365,1637,3755,2120,4378,1300,900,1000,3486,1915,2690,2403,4407,2163,2457,3200,1400,1730,4207,1500,1800,1900,1800,2200,3145,2380,2711,2300,2208,1238,2400,1200,3120,1500,1499,2917,2168,1279,2507,900,1644,2250,200,3211,1878,13215,8494,1820,1900,862,1129,2311,1948,8761,4700,2396,1900,4805,4760,8750,3759,2893,2300,3200,5185,3787,9840,1505,3938,3300,7724,3770,1804,1006,3100,2700,2690,3237,1720,3600,1988,2505,4959,14000,2640,2150,8000,2100,7278,1805,1880,825,3852,3336,2400,3772,5902,19818,3000,3826,2200,8975,10713,4969,5371,7030,1966,4500,3234,2939,4505,1002,2530,3459,2416,3698,2826,2978,1554,4482,2514,4578,1052,1806,2400,2656,10611,5991,3142,6942,5200,2485,10161,4133,7258,10596,2790,3753,5023,3745,1951,7002,8994,4853,6198,7983,1979,10289,4630,4935,3514,6000,4300,4900,4848,5977,2243,6257,7434,8604,9567,3563,19054,6740,4795,15225,9900,14388,10780,10130,14568,22229,44200,37111,52072,63505,96423
2019-04-26,44779,3382,2334,5520,5633,16162,8854,10880,6348,4830,16243,16705,15559,28848,9361,22923,1082,9329,9602,7658,9798,10578,6764,25841,6008,2200,3378,3201,2500,5177,9231,21698,5022,4838,4305,6240,7653,5569,6628,9745,8313,6965,14571,12561,6635,5495,2521,2592,3302,7767,5403,6100,10351,8680,12649,7120,4040,6787,3986,3531,7205,5512,4240,9095,3462,5467,5668,40791,7229,4806,6950,4876,5163,11445,15588,7002,7226,4500,6900,4410,4714,7558,10602,11612,6121,10904,14370,10869,6243,6715,9037,8488,5189,6263,6495,6066,8518,5462,5601,5219,6187,5820,9238,7881,14540,6283,12136,17629,3502,7383,6710,13417,14720,9091,12839,21523,12323,22062,12316,10933,10000,29217,8318,6975,4682,8425,5893,5486,2647,3758,3402,6492,8719,5096,9250,4998,8328,7529,6225,12224,8229,5293,4505,4423,2591,3933,4156,7495,2880,3800,4269,4950,3082,3205,6488,10458,16374,18300,5028,7998,8101,6732,7114,8274,4830,8028,6679,8926,11456,4304,9274,6366,4083,4933,4040,4772,9195,2506,2916,4425,1845,5139,4450,2201,4715,3274,5385,2134,4188,4277,3586,2876,3760,5062,5833,9086,14115,3554,2602,7033,10808,2500,7363,7442,4702,7595,14887,7880,6620,8491,5903,4526,5434,5728,10051,12413,9197,1962,2746,25504,3400,4147,23089,21232,4552,1991,3802,3450,2332,6853,6789,1600,3864,2862,3292,3530,4108,3161,3186,1611,6255,1710,13397,7984,1411,4693,3233,1735,4578,1701,3635,1160,5200,2448,2328,2620,2093,4591,800,1829,2902,700,2106,2208,2051,5911,1877,2462,3959,2665,6295,1700,5587,3568,5941,2607,6328,5047,4986,5549,5906,5518,6068,4002,10077,5153,2606,900,8633,1886,3818,6732,5700,5700,10731,6139,8028,6586,12086,13494,13152,6936,9902,5800,16628,3401,3421,9184,5280,15489,5049,6019,510,1532,2650,2369,2016,2129,1835,15704,4250,6458,7010,1695,5479,1600,5075,2078,3501,2847,4679,3941,8192,4282,3354,4189,7042,5070,4258,6847,5910,8732,3347,6478,6278,4802,4985,3738,4588,18513,9287,9482,7316,3285,19162,8966,7644,9182,8825,7161,15592,18937,8428,5361,10783,7459,14031,24380,29344,16479,10378,7103,8143,6118,8871,24718,15210,35094,12300,13241,16312,18478,53164,36863,15776,27555,39755,27625,28604,189355
2019-04-29,37331,2525,3927,4800,8647,11469,7281,11462,10496,10133,1723,3794,1537,1500,3952,2103,500,4700,8900,5600,2400,5421,5627,1100,4664,3874,6343,4046,6158,1500,5575,6556,9274,4024,4928,3198,10256,16541,2899,6393,2324,4888,2205,6247,5268,22944,23776,7836,7226,17256,6584,8433,8752,4730,4767,6213,6067,8114,17398,6051,20314,5049,17097,8013,2496,3651,7435,5205,5961,7265,18350,3394,5426,3876,4706,8688,11722,4480,9595,18025,9743,12130,7175,20514,7661,65771,14877,12037,8782,20025,14995,3781,7268,6095,11261,7284,4910,7056,5027,4214,6851,3878,9100,13675,40537,4978,10857,10991,16796,7981,16020,14737,8040,9003,27683,13628,14689,5150,6584,5430,9500,22166,4158,10714,2601,1804,3604,12900,5380,1678,3100,14545,3700,8013,11754,9355,17231,11946,8976,17949,18718,3850,5056,6133,16281,11640,48015,61037,15970,8900,2304,1800,1073,3001,4108,5501,1900,2776,2744,3900,3300,1556,8390,17700,4181,2550,923,1600,4291,2100,16128,4560,5974,2089,3214,11950,5262,2450,2000,2524,18034,3219,11660,13722,9400,11497,14506,10791,4162,3541,3000,7859,4231,3878,4407,6376,25346,6909,2300,2962,4821,18832,11000,5088,2001,1800,2400,800,3755,4396,1100,4275,2076,6290,4388,2300,5357,1700,2700,1900,10358,6427,5645,1988,900,2300,1970,1230,1137,264,5860,4259,3282,600,129,1162,4290,1322,2000,2383,2706,1925,600,3500,1200,515,3090,200,3370,4800,2900,3571,6583,2300,300,3300,4903,3800,3114,3100,2300,4949,600,800,2472,3400,8649,5728,6406,12176,4226,2786,5238,450,1600,700,900,1925,2228,2692,2581,700,3482,2200,789,725,600,1203,5489,3690,1290,3809,2857,1850,1100,1300,1600,21556,600,2150,2121,1018,3502,1900,500,2586,1311,200,3029,3619,329,1663,6104,4190,3694,4630,2900,1533,1500,3537,1889,719,3801,4480,2412,5600,3111,4436,2700,3780,7369,2705,1400,1600,2973,4001,2034,2956,2313,1773,724,6311,2212,6918,3712,2272,2371,4773,1803,2906,2500,3690,2409,6954,2964,6756,2347,8428,4824,1771,3400,5553,7222,3106,10157,6270,5621,1300,6717,3778,6094,9943,7448,3609,6895,11362,14771,13743,6326,4883,11274,11214,13927,12772,17007,21923,13057,20379,17079,111299
2019-04-30,36115,3860,5885,14748,3728,4050,700,771,4775,2300,7188,3592,7300,3651,2505,2280,2707,11600,12500,11045,7924,2306,1753,3320,2156,6000,4003,6200,4467,1880,13572,5590,5048,16323,7580,8640,3971,8886,4785,2330,3894,10838,3700,2975,4858,18290,26222,14841,36907,36150,44796,9398,22111,20976,29271,10632,3035,3600,900,2850,2429,3409,2987,5429,10550,3416,5898,6743,3459,3034,900,2420,3561,4392,4169,9839,9124,18430,14771,10198,7560,2682,4371,9079,2300,10412,2291,2405,4387,3317,10268,3619,1610,10871,4255,6289,6856,3200,17476,11429,11485,4900,9107,9236,13114,6598,7493,8127,3974,6603,3050,4338,6405,8504,8050,4732,4188,6227,7698,10227,17217,5610,5000,4289,4984,2200,1240,5576,4402,2200,4824,6707,5320,6522,6470,13523,34931,4423,4634,16443,13925,5635,3000,2100,2748,20070,8646,1815,11271,1843,9800,5130,800,2258,200,4862,2160,3231,2681,400,5873,2301,2572,1908,4420,1102,9040,7418,2735,3251,6833,2955,900,4019,22617,3630,1009,2400,825,6752,4200,1940,529,4195,3849,2481,2440,500,3421,700,3527,3200,2819,2200,1494,4531,2200,3927,1767,200,400,2200,16614,4078,1000,2049,321,3829,920,2463,3785,2189,2999,3400,2452,2416,4463,1630,2285,800,9689,3303,2300,3200,18191,3300,2138,2177,1000,2000,1400,1592,2600,2100,2830,3200,2187,4119,2600,9009,16400,3684,1525,5309,1781,2348,1800,4073,1388,3175,6214,3251,3652,1900,2030,2182,2600,3980,2293,3904,2107,3354,200,956,2404,2812,3082,4969,800,3645,1060,3152,12156,506,900,3736,2390,3532,2526,1000,5783,2379,2900,1393,7973,5043,4386,27918,2157,800,2889,9881,2850,6951,7803,16924,4748,1700,2601,1800,4200,3957,4600,1556,3900,2200,3603,3532,100,7632,2609,8633,13400,8647,2242,3062,2900,3000,16500,18594,11965,5449,5317,3022,3900,14437,1710,25638,2150,2900,8812,9719,7585,2300,4898,7029,5401,3611,5838,5600,1394,5759,17326,5603,6367,2060,17904,21725,9164,8917,6994,3696,3150,7611,3929,16721,13749,5282,5011,13919,3942,5773,6705,16919,3900,12614,13878,5730,4786,8287,8571,15874,7450,7147,9407,7793,11566,8131,16411,8085,9641,8231,5830,8842,12349,22674,30552,23052,19749,142934
2019-05-01,37352,4212,1398,12288,8860,7460,6695,7904,5203,8694,10233,13227,50472,6276,19906,57837,16110,14800,11863,10085,36613,12063,5743,1212,2523,3785,4390,1800,2234,1826,20325,8514,5541,10151,4198,3524,7087,5275,15431,9966,8634,2590,4631,6212,5500,8773,31715,41502,7066,9731,6331,16060,17246,5833,8704,1525,11926,13081,8326,12434,14669,9229,5596,2944,2771,2466,2206,3500,1432,2220,17346,5164,5400,2166,3164,3405,4644,3971,6327,1200,4900,5359,2160,8657,11212,5786,5487,5607,15680,12575,11485,7900,16654,25136,30080,11053,19764,10007,17169,7888,14516,4453,6059,3955,37936,12351,8988,5313,12412,964,8326,6125,4446,3941,3012,22069,9899,3210,17260,7339,7816,8011,6956,2756,4519,7332,43905,7677,18439,8955,16256,42003,14597,17373,10501,36141,12943,13145,45354,32030,7306,35650,10216,19551,7183,3700,13446,41246,4005,27100,11312,3319,19609,2920,1600,3647,6487,7543,5599,6497,3100,12346,14708,5650,3500,6739,1500,1884,3360,5261,13560,10559,3749,2982,6081,3218,3537,4629,3400,5007,1400,1436,3805,9100,7445,5710,4700,10236,1200,1969,6503,2635,4343,6550,6032,2960,9241,11991,26059,10537,10710,12625,17753,16614,31384,21172,15925,21437,4432,4973,9419,4400,5799,8738,5200,1400,6286,4632,16302,7333,3221,6772,9797,1900,1583,3910,2057,2500,4362,3050,4077,15501,12112,7337,1700,1200,4776,53881,5592,1937,10475,1600,30600,6658,1901,3921,3600,25033,11976,5870,3500,4442,3878,3405,7400,4145,2553,14888,3000,2494,6295,2458,1985,3665,1204,600,3601,3300,976,4582,5877,1800,2869,13221,5910,6552,1904,10927,6209,1910,4348,10129,5869,1000,3529,700,5849,3206,4586,2803,5961,6618,9607,2748,2709,4159,29765,9921,5619,12725,16947,24923,21606,6723,5452,4692,2100,3000,3111,8503,6730,5841,5734,6217,5686,4053,3103,5554,5193,6136,7865,3429,9278,3366,3404,5541,3676,8734,4732,2285,4987,3384,3578,4829,5805,5438,6072,2882,6011,3542,2929,2167,4508,6029,4387,6026,4241,7468,2789,5107,2543,5706,5345,4750,8099,4038,12733,32380,16218,8651,7395,8730,10335,9288,5002,8625,13304,9700,7911,10577,10833,22915,10070,7602,7732,16604,18806,16804,14425,10268,37246,16105,13934,23032,21690,30661,21322,29446,40370,151801
2019-05-02,49775,7373,12639,2563,12668,5200,7791,4147,4425,11988,10650,5783,6898,10974,5885,4700,7626,4281,5555,6701,7621,14196,10005,3179,88342,13168,8600,34204,6431,3196,9948,8823,13955,6810,14348,4400,13140,5708,5371,5783,7856,8943,13373,7558,7524,9100,7570,2852,4582,10600,23422,4766,6110,9755,8903,4877,5312,7519,4011,7000,5519,3460,8918,10909,4633,5827,8420,8168,32866,11079,5740,2608,2798,3644,3674,4113,6647,6621,4273,5278,3535,3750,3244,3479,2631,4868,6689,5945,12702,4306,13922,10046,8797,2062,8321,5135,19757,6577,9017,12120,10052,6400,15780,11684,6350,5216,5702,4917,6509,4845,23472,6748,7045,8062,5538,7477,16835,10212,8662,5166,11620,6629,16881,10422,2814,18854,7274,7371,3487,3207,6980,2702,10295,3930,30946,5880,4927,3137,5470,9234,3152,8017,15375,4031,8516,6780,3511,7181,12915,7258,3385,2300,2342,4272,1800,4190,4729,3097,6856,11284,14715,6195,13664,33399,19164,2700,8005,6427,2301,6412,6571,5300,11077,16353,18415,24332,11128,3994,16630,9228,21565,7587,10129,10700,3500,6197,4430,4027,4456,7135,3200,4177,4173,6290,4550,4515,8254,2172,7669,9527,9659,21611,15116,8195,21331,3624,8500,2673,1600,11434,9190,1600,2878,8414,6600,3559,1800,3600,2400,2600,7286,6475,2875,2600,11433,1680,2970,3387,3148,4221,5735,6754,6493,7715,3600,4269,3293,6766,2082,4018,2842,14142,5161,5275,1438,1636,5000,2025,2400,4390,4515,3509,5595,6867,1802,3976,4669,3788,4074,3831,2600,7527,3458,1504,7284,3580,2250,1300,12000,3523,2004,5064,1775,2890,1805,4468,3779,2327,5133,8392,2547,5378,3407,4249,23687,20563,2576,12996,10895,5047,5703,14377,2579,3914,6639,12621,12426,11200,7231,12808,1900,20904,3115,13900,5794,4773,3245,3996,3343,2321,1950,10897,8363,20533,7906,7275,34279,8003,5623,2007,4095,7607,6380,1623,7624,5139,10018,5406,6472,7138,10463,3021,7713,4187,4459,4494,5971,14672,7661,11110,2817,6339,6507,6616,6876,9796,7407,7613,8011,9072,6967,9324,6108,5514,4683,6210,6779,6742,11276,10129,6426,8370,12087,15101,13625,15804,12301,13313,15012,13365,12287,13889,17467,11733,12182,19310,21295,21024,17652,21193,24050,26416,25768,16761,41006,41089,27659,47836,49489,118131
2019-05-03,89245,45948,14064,26835,24239,55588,61799,26070,11280,12143,13461,25298,5750,8251,19078,18761,15124,13660,29826,26339,6756,12115,67564,14402,9100,13661,9085,2900,7501,13875,33485,6200,26879,22820,18964,22188,23662,12289,9677,22736,5427,9923,9248,21449,10633,9969,6306,16151,14863,68371,26953,6300,12016,12668,15187,25563,20309,36779,44170,24152,42350,25008,12667,22487,19871,60774,22920,9632,27861,9550,11728,34873,37425,19807,8441,19654,31703,14553,9406,18309,47532,28667,17649,9051,12576,14542,7310,24943,22704,8320,19704,15916,16837,20353,6466,8403,12524,5450,12979,10150,15020,16584,23491,33305,11284,40731,13220,23304,11964,12364,8733,4587,6237,7096,9707,9015,6002,5062,5020,3852,8977,4301,4022,6642,10877,4533,2000,9431,2100,4825,11911,3440,9726,3814,4080,6655,10428,11792,6788,6806,5298,3074,4891,5310,7240,1531,3251,3992,4772,6699,5050,3127,8924,5076,2801,6699,2800,3128,5359,2099,2536,2526,7000,5038,3998,10384,2621,11000,5017,3858,3079,3294,4331,4734,5358,4908,4353,6552,4520,4857,8500,4000,3669,8209,4075,8271,4400,4208,2467,2935,4231,3780,2712,5300,1300,5544,4888,3899,5597,390,2871,7413,9450,3446,13260,6746,22514,2824,3013,5164,416,5206,3038,6334,3200,2128,3579,4216,18979,4566,3470,1690,5015,6255,6753,6862,8621,11804,11759,6700,6568,6276,5153,3102,1158,20368,15228,17387,2400,5671,5600,5410,8606,8206,4615,3300,9861,6222,2622,2596,3500,3855,2726,6303,5648,3100,2601,7993,3273,34278,15577,2480,2002,2623,8752,5574,9806,4279,6323,4216,3470,4406,2475,6511,5135,2993,8243,6121,4635,7902,4792,3728,7007,10566,4495,8810,4451,5455,6459,1087,4006,3500,14351,5516,2147,9816,4610,5095,4017,3846,4668,1743,5453,2055,5428,2704,6395,5064,2399,2994,4048,7773,4819,3554,5100,3723,14109,4978,5522,5608,2623,3733,6271,10636,2650,9030,5149,13174,3300,2174,4699,3027,5170,6140,5251,1586,5826,8465,1921,4492,6835,7658,2100,1906,11683,4512,6490,4009,6048,6177,8039,5782,5400,8365,2540,7881,2073,10602,14016,5608,12948,6780,16862,7697,10724,11723,9195,13882,13767,15881,21607,4831,18957,13886,9308,30064,39604,15323,15291,21942,18441,18105,23814,23878,26093,48446,37061,50863,57706,233916
2019-05-06,44033,3026,6064,5328,3823,9000,6900,2508,5094,6051,8444,4630,3310,4989,3602,3548,4100,6007,3400,7538,6313,8518,6640,9935,4850,9637,9923,4151,9838,4625,5394,4800,1400,8424,5000,2300,5259,8449,10639,9116,5652,4097,3400,16867,2750,21179,4188,2506,3700,2775,4224,4350,3350,4598,6400,3132,3600,5585,3507,1600,3700,2500,2828,4218,2625,5565,600,2900,4700,1100,4658,800,1454,5600,1001,2721,1929,4041,8834,5894,5167,2700,6535,10107,1600,8176,3524,5038,3100,2396,3824,10605,300,2856,5767,2612,1100,4743,5415,7242,2171,4122,3265,1344,3625,2973,2573,4135,1661,3595,1600,2589,5193,2828,1800,2162,2200,6350,1275,1667,24271,4701,2257,4474,3484,1010,2500,3912,1600,2379,3659,2645,2323,2310,4400,2580,2200,3508,4047,2559,3591,4002,3530,1700,3183,2670,3360,3167,4545,3105,1150,2600,2505,2000,4251,1414,2000,12177,2825,1916,1712,1173,1800,1900,2000,1500,2800,3400,1800,2200,1500,2160,3477,920,4176,2995,1895,3540,2000,2100,5324,2951,975,2750,400,6252,1836,4324,1295,4200,1870,900,900,3003,1100,3537,2627,700,3097,2155,2700,6275,4431,31957,10213,5600,4582,4295,1200,2138,2661,1186,4946,1114,2603,2719,2278,1998,3670,5869,6564,630,1401,2223,2355,3443,2614,3786,2978,805,2495,1303,710,1514,2143,2318,2539,4615,3771,3708,4323,2792,1500,4600,4069,2200,1070,1562,2400,4148,2794,1700,3523,5639,6893,3492,3653,3494,3054,900,3249,4561,1300,4600,5637,2922,5521,1821,4000,3344,201,2213,3734,5325,605,3890,3183,2674,4680,6428,5407,2531,3002,6700,6385,3000,3597,5429,2238,3585,2480,3238,4466,2219,3784,2604,1981,5100,3393,5406,3603,4188,2200,17113,7941,8576,18117,2156,1700,4584,3992,2514,4063,1443,6187,2701,5739,2330,4873,3432,5798,5715,2100,4000,3797,4645,13540,3400,4917,2937,3821,6996,3579,2860,11895,6764,2849,6405,6225,3205,1800,9889,5781,5971,6182,6225,4934,6075,8238,4611,3183,7184,2900,4388,4236,10023,9410,4300,12400,7713,13348,7746,9003,11376,9296,6994,13109,23793,15468,9630,9966,17402,22173,12330,11711,16610,12041,14557,13948,12679,14712,16498,19851,19696,24481,23438,34794,29352,40514,130123
2019-05-07,52799,6916,13142,4515,13893,8292,11400,7272,11793,3700,3200,24218,11400,4014,11100,2202,9743,20060,3750,38546,28022,6599,5612,2007,4000,5374,3801,5621,9185,6051,17315,5534,9456,10698,7846,4769,4943,10200,3249,20922,6589,9241,4164,7314,8630,14928,11354,5440,13319,9864,14052,8877,13691,13030,13801,16796,5978,8807,1999,6125,45547,31018,7828,5285,41530,8557,3241,13500,20077,14520,38693,5505,4133,4461,861,3125,3302,3661,5750,10197,12013,10004,7740,7410,14406,3135,12503,2321,4331,1125,11579,3394,2599,27725,5007,13756,11006,13357,8100,12815,9090,2638,3910,9758,1400,1610,6005,4857,3701,5083,8425,5573,4315,19653,8689,23595,5775,1249,8800,9616,3913,9203,2700,13297,1100,800,4727,9742,20988,24101,5120,4930,2208,2541,5926,2620,9628,4073,911,4987,7375,3483,3900,3834,4074,4815,5984,13274,4404,9518,16472,2140,21876,8015,14477,6442,12748,1120,1300,2221,2281,1100,1397,1100,2444,3291,1926,1100,652,4517,1100,400,3778,2079,1307,900,4951,1068,2410,1201,2354,2731,2500,5190,1742,4282,2718,3200,3510,4824,2440,6549,3236,4280,2100,3460,1800,812,1540,6281,2100,5728,2100,1709,2569,3565,5535,1400,5308,13755,4517,3850,2921,10844,9513,10199,20711,12496,5766,4501,2820,3751,6905,9483,5499,5513,1500,8202,4825,4292,4731,2600,1748,2100,21686,7821,858,500,3970,1500,30135,8125,8238,6128,6805,7226,19138,8478,8019,1530,6112,20099,7625,3054,1520,1210,1609,9805,1800,8841,2915,4477,2975,4920,2204,1160,6367,1000,2321,3888,6601,3208,2134,2293,5617,1960,5031,3217,4300,1700,2300,5575,3501,9792,10730,5035,4221,4506,9856,3100,6526,4977,8869,8465,13409,18106,1516,8410,11420,8896,4721,7819,2000,3879,9114,10324,9087,9750,4815,1445,5401,3987,5973,2458,12918,7262,3367,2600,3819,5866,3380,1250,2694,6787,2701,2803,3100,2941,2114,4068,4817,1775,7068,8890,3539,3959,5693,5445,3314,3075,6061,4564,6599,7985,10071,7939,9976,16282,7789,8151,6966,7081,10233,3666,5949,20445,8584,4889,7254,5197,11812,14749,6658,13654,19697,11006,13624,40219,10650,9584,17611,7801,13674,12214,10512,11389,9920,13491,7051,13450,12857,16123,14399,15115,22917,23062,16519,28249,23669,51470
2019-05-08,34452,2546,3788,3364,3207,14033,8838,5594,5265,4500,6060,15725,8992,15246,2453,8913,3350,23469,18011,14028,12245,4010,16525,9263,6866,6127,6526,5800,4508,5874,5670,2356,14999,9009,4287,3512,7378,3574,7154,19810,5911,3159,8945,2519,5871,1599,4203,6735,4409,4428,9043,15312,5640,1911,10606,7380,8458,3408,3593,1736,10418,6868,15285,16554,7520,11118,11900,6037,4041,6257,6326,2283,6583,9927,16163,2045,8193,9717,34524,8520,16263,2147,5944,3212,7487,10409,6787,9845,9774,17487,11661,6422,7639,16949,3882,12065,8548,3440,4295,4907,6885,3592,6405,7531,8924,29688,57605,2780,6834,2900,3525,5773,1976,3012,9767,5050,4266,18012,6183,5735,4680,2275,8226,20833,6515,7083,9925,8856,3377,3340,3389,5349,4763,15254,16476,4471,4774,3980,3244,2586,4204,2212,6551,3878,7241,5214,9864,3913,1800,6381,10289,5000,2362,24439,3700,3250,4227,4108,2019,4441,3276,3374,8069,9233,6420,6934,6548,4045,4196,6184,4952,3320,4300,8592,1600,2208,2000,2819,8609,3678,3300,2900,2431,4758,1923,4455,4738,4128,2638,2000,2297,6537,3206,2856,2426,4631,3460,6729,7872,3161,10114,846,4406,2310,2218,8089,1886,6615,3791,2204,2031,2521,4019,3028,1200,2500,6282,3344,1460,1317,2100,4119,1100,1369,1880,1400,3057,3783,4091,1500,2677,1449,3164,700,3126,4754,2158,1451,1441,2681,2874,3170,1462,2076,2083,2166,3824,4738,600,5857,3852,1879,1902,2724,1826,6355,2182,900,1230,2721,900,3987,2840,4363,2532,3400,2709,1685,3975,4102,3086,2849,3749,2600,2569,1100,2403,1500,4649,20869,2844,2388,4500,2545,1413,2176,3534,3191,1929,745,3393,1839,5011,3146,5602,3459,5650,2850,400,6512,6159,2799,5566,4007,3908,6798,7537,4520,2569,5705,2712,5560,4439,5883,11437,5464,4018,5244,5296,4008,3710,2962,4373,4087,2900,5682,4600,4617,6569,4500,4413,5340,5851,5968,7581,2700,5717,5501,1875,6831,2536,5802,1637,4750,9117,4158,27199,6809,2615,5057,2051,8136,2803,4539,3241,4864,5269,5820,5642,7152,5046,6854,5612,10769,8006,7211,8277,9762,8178,8314,7361,15319,11462,6851,11496,11667,20302,23420,10093,10672,18232,20464,16569,15448,18761,32208,29980,32561,33190,66175
2019-05-09,47759,11023,4316,3960,5034,3800,6515,4024,1200,4000,5211,3774,5280,8543,3170,14336,5983,7362,9024,8926,10801,4646,3250,5442,3816,3328,6500,2200,6377,14488,8988,18775,12346,4844,12987,4701,12618,8486,3750,3396,7741,1628,9187,7813,3438,8949,8735,3513,6903,17150,14077,10358,19140,6162,9250,13890,7297,25485,6891,10858,14331,13399,12033,13419,6634,4374,3548,7884,2873,3082,3203,5284,10884,3509,13617,4697,4852,2100,2970,850,1575,4300,2167,5116,2400,5887,1500,3863,1448,16035,3525,4288,4050,2280,3900,2400,2000,2400,3717,1925,5550,3340,7717,3035,5000,1400,4406,2498,2279,1874,1953,4327,3828,2650,2858,1252,7762,21957,9572,3126,5201,3878,16266,6618,6634,1634,5503,3305,3787,2943,9043,5241,14076,12401,5924,9896,1275,3600,1531,3029,1670,4626,1916,5920,4301,12016,1257,3083,8557,6219,5925,3913,1771,7729,3600,2281,8873,8231,3330,8127,9116,9462,8927,2625,6966,11670,7833,2812,5647,5330,6973,13627,3979,10578,7760,5495,9020,5500,5200,4376,5972,5437,4659,2225,3192,6014,5080,4786,4736,5860,5457,3381,6150,7418,4913,3519,4027,2116,3735,1736,2764,1672,2562,2943,2010,1646,2415,4600,3204,9970,3665,3292,6462,7133,5639,3841,3932,1100,2516,2251,2300,5999,1800,2050,3638,4993,1625,1600,1485,2293,2099,1000,4530,3323,2556,1501,2895,2466,900,3172,4487,2000,809,2656,2470,1604,2703,4893,1302,2000,3722,1851,200,3029,3425,451,1562,1468,5601,3708,1709,2201,1947,1063,3466,1097,4346,2779,7527,2997,3400,1992,8201,6012,2216,3761,8122,13053,10916,7767,7299,1936,2000,3600,2220,1969,800,1545,1000,2851,8574,2007,2104,1782,2000,2665,4250,3970,5438,1462,3759,1101,1300,2093,7238,4614,5000,23692,2887,2272,3126,4312,2835,2273,2840,6100,3511,2698,4242,2267,1787,3312,2188,3057,1864,5217,5500,2690,3831,2418,5509,1700,26115,2251,2803,3004,3203,4214,5483,3997,2999,3661,8872,26820,4549,2470,4353,4200,3753,4309,2712,1200,4084,1697,1786,1800,3448,2085,3843,7304,3104,3825,3592,6825,4252,5482,4975,6221,4470,3734,4940,6513,5506,3631,5648,9250,8246,4263,10138,7934,22170,9562,10011,9550,15839,14355,17918,21866,28836,59100
2019-05-10,21294,2500,7218,5056,3405,3649,1200,817,1700,300,1998,4143,16462,4461,4490,2169,1500,1100,3734,3094,4742,2391,6159,15677,9968,6677,4053,12228,5127,8515,20748,12257,14110,4920,3616,3630,8887,4828,5108,3404,2725,2112,3000,4200,3310,11296,5798,2981,2512,4556,3498,1400,1556,3758,2950,2904,2088,2170,515,1459,2100,960,3457,600,500,1000,2000,200,1533,2018,3213,4120,4036,1800,1310,6000,5794,3200,3900,4400,2600,1729,2482,1213,30462,3820,7194,24700,12042,3865,2800,1700,8996,2619,4054,3134,1800,625,409,7986,4000,19179,8980,2891,3836,1300,1345,1700,3200,2281,1221,8665,24580,2615,2210,1400,1400,3177,4372,5369,6200,5528,1483,6700,1858,1500,2325,1510,4544,4075,2404,2031,2550,5012,2801,2900,4000,1200,4603,1800,1797,4225,1400,4853,5338,5859,4320,2407,3400,3215,4210,8192,3828,1820,600,2100,1028,1800,2207,400,600,2102,2640,500,1235,4085,7262,1871,1100,500,1000,2700,1217,1563,1601,820,4761,2818,3810,1729,4200,2369,2643,1900,3210,700,1230,1400,1394,2365,2100,1933,2902,400,1350,600,200,1700,600,3200,2390,2300,1571,990,820,471,1911,1400,524,1800,1700,1437,4973,2659,1900,800,1200,400,800,1255,1900,1731,1500,1500,1775,460,2800,7745,5941,470,4861,900,2406,1130,2073,2197,1928,900,881,4533,1400,1925,8847,300,700,1213,1017,1000,2299,400,2210,1638,1150,1185,7572,1407,2200,900,4982,400,1763,1115,825,881,1061,700,1093,200,12744,13567,5470,5433,4312,7221,3313,2000,1698,1308,2607,3243,1841,2210,3111,7121,3481,6914,2800,2500,200,5726,4007,4500,9103,7300,5398,10053,2600,2642,1000,1300,1200,2200,1750,1203,2580,4010,4002,2500,6063,3089,500,1731,1909,800,1511,1745,2977,10075,1350,200,5690,5014,2000,1485,1630,1538,565,2471,600,12850,9604,2200,2952,2780,1500,1129,1800,1100,1249,9295,1700,1608,800,1139,3841,917,3446,2400,1191,5453,2519,14265,4248,2667,400,4312,2723,2134,3220,2997,5100,8590,9142,4553,6192,4159,3890,3158,3602,3431,3440,3352,7170,24188,3710,4298,5274,7116,5984,19001,11715,19106,24991,21455,62914,24228,24127,18757,32654,60040
2019-05-13,40290,4766,4798,1824,2352,7398,2500,1200,4662,3000,3119,1300,10277,6570,4974,2472,1961,2400,3118,9339,6390,14251,9471,30118,626,2565,1623,2400,7236,7167,722,4408,7056,12479,31196,3616,9550,3919,6251,2265,4256,10998,14289,2213,2100,1550,7200,7400,9240,17855,6474,4415,4400,1100,2014,4774,900,3525,5835,2800,11900,35412,2048,7634,5579,2939,7600,11470,17049,16743,14595,8250,12339,11303,5440,7375,2900,3300,9175,2700,4351,2109,1530,1500,3750,2549,3800,2632,1190,2377,5298,4880,3716,1011,5296,1439,925,2213,2471,4600,2389,2700,2075,1340,3400,3554,10119,2100,2755,1500,1325,1650,600,1349,1980,300,1023,700,3190,1166,2894,760,1300,3903,3034,2412,100,2990,1800,2300,2229,2283,3101,1900,10153,9579,3185,16175,17922,7681,113644,22731,5378,1500,4043,6383,4951,16012,2201,5109,1414,4819,700,11186,7347,12502,4653,13519,15828,2754,17900,14564,7904,15019,1800,3208,3700,3400,12335,2262,1900,3900,7615,600,7771,23003,58200,5900,3301,10672,1500,6025,5388,52087,61741,8060,10015,4645,4503,4149,1771,2960,3900,7200,7124,1527,2286,9220,2469,3106,6339,1730,1800,1316,3933,3027,2144,44869,7598,48906,2600,1525,10418,6177,9100,16580,4641,3095,24100,1831,11097,3095,4600,9784,1637,7011,721,20646,16800,2081,3343,4856,8300,13742,22442,9264,2900,500,5515,1300,14779,31418,2500,14610,1700,1955,2600,6700,9000,3830,7244,7485,1200,1783,2816,200,100,3100,4125,3164,1002,400,1900,400,2955,5882,3540,800,1700,1850,4120,1100,1771,1507,8546,1800,2689,4028,1545,3200,2400,1030,3750,1400,2300,2312,2716,4900,33494,65627,12758,3287,2918,3016,3500,8262,3000,2269,900,2139,1400,1407,1043,1600,2923,2344,2465,900,1700,2301,3000,1639,745,3800,2833,1304,2700,2100,1900,1600,3200,4061,2100,4505,1797,3115,2300,3450,1705,1300,4381,2338,3200,4588,900,12225,4600,6745,3532,1505,4723,1250,3623,11577,7977,3768,5300,2400,1700,5651,6516,2931,4064,5000,4895,3931,5624,5021,4407,3806,15105,7770,60326,6302,4779,5675,6783,18976,7254,13336,6176,4500,5313,2113,7920,9385,4960,9084,5603,5733,23571,17266,35797,50313,80999,20199,23111,24439,27825,90209
2019-05-14,24976,2100,2500,3637,3007,8704,2200,1518,2900,700,2560,400,2548,1900,3500,2100,10612,2648,5802,6433,1230,3433,3420,3102,1100,4095,782,1101,1900,1703,4400,4941,10666,6800,18916,5176,8400,11976,9800,2300,1910,2400,10900,900,2400,5815,3015,2190,6052,3768,3573,1373,4846,1008,2235,2921,2118,1692,6373,4300,4500,5400,3272,4341,3025,5488,1820,1000,1807,1307,700,1424,821,1149,851,300,1148,1552,1647,3125,2117,600,2600,400,1909,2150,1152,1882,3178,2725,2521,1274,970,2750,2832,2252,4997,5051,1258,3213,2479,2000,2200,2351,2621,2982,4700,8000,3430,3074,2800,5271,3143,6275,2344,3200,1319,1771,4435,2311,700,2702,3246,3990,3804,2600,2599,1800,3109,1917,4599,3824,3129,2412,606,3307,3410,2036,3139,800,2300,1332,869,3857,3750,2325,5498,1025,1798,8499,1825,2462,2526,4206,1900,2318,4400,3406,900,3250,3712,3000,1100,941,2700,3672,6028,4612,3687,400,2494,4300,1200,3064,4609,1226,1600,2000,1150,2254,4833,900,3416,1700,3276,664,2206,2300,2317,3299,1270,2964,400,6548,3481,2221,1000,1500,300,600,1911,892,912,2600,1126,700,1000,1905,1988,1303,1300,800,2645,1726,1210,3037,2082,4119,814,1153,3309,1474,3950,4450,3360,1900,4610,6000,2058,700,12300,1606,7176,6347,2600,600,946,1330,2922,200,1013,233,904,900,1020,900,1200,400,4600,1600,1495,2644,5884,1800,1135,655,1596,600,1850,2600,1850,800,400,500,0,400,1363,700,1600,1324,3000,1050,2050,500,4020,1100,2058,6780,8561,2900,2276,3931,1000,1700,1100,2331,1813,1607,6300,1615,6093,1145,1252,829,1400,960,2083,13466,2390,1600,3600,4900,3250,1400,2600,1853,3615,5096,3655,1400,1726,2611,1204,4403,1408,1330,5417,2700,3092,5070,1649,4654,5619,5837,3308,4218,4993,2456,2624,2902,2864,1947,1050,3046,1742,2500,1816,3016,3198,4934,811,3452,2467,3012,4604,1345,3550,1034,3700,4000,2394,2697,1100,4083,2178,1200,1300,2905,2407,2770,7120,5450,3444,5600,10209,3900,4394,5787,4696,4537,4112,6530,2750,3459,4371,13522,13968,6317,2400,7015,10211,15705,6907,9313,6671,13132,11287,16522,24926,66213
2019-05-15,23888,2525,1695,3166,3950,800,4400,2771,2300,713,51200,4034,3348,2750,2500,1380,300,1250,3507,400,1800,1500,3400,3743,5901,2270,3389,2906,2832,2300,15400,1100,1500,3400,4800,4243,8300,6894,27458,3001,4976,6300,12961,19101,7177,2450,11600,1359,1000,2790,1700,3275,2675,11512,1000,1600,1100,1767,915,1800,13174,800,3350,1972,2415,1400,1964,1801,3700,3333,1800,5569,1510,1400,1505,5655,1000,18300,1930,1840,3150,1765,1900,1200,1070,1300,2357,1200,1200,1982,1300,3300,1100,1418,1500,1581,1100,8311,2855,15500,4300,5988,10425,3339,2438,2206,4469,9609,10300,12410,3050,2474,1900,1200,12959,4200,5920,1400,1000,1500,1700,5014,3740,800,2807,1750,1479,2100,4411,3048,1860,4341,3800,2100,4113,3202,19700,12687,6826,1900,4343,1966,7110,6275,1200,2000,7455,1942,1200,3708,2200,2172,300,700,2206,1987,1500,300,2675,1100,600,1100,1600,1454,800,600,928,2681,200,1401,1103,772,1500,600,3850,600,6000,600,2116,1201,400,2311,600,655,1989,2213,1476,2045,1550,100,1100,400,1400,3800,7609,900,619,1320,3614,1900,2047,2112,5491,2171,1322,2100,3237,3601,900,7694,1300,3210,1200,1100,498,1000,700,400,1038,2442,1600,1710,1300,1100,2146,1500,1900,500,1400,601,1119,1718,2100,200,2520,600,756,1661,1006,500,2825,3820,5900,10043,10036,3868,7555,5848,1100,1328,2625,1500,100,500,660,2010,700,600,800,266,800,900,6168,1300,1360,1100,600,1500,2171,500,2619,957,3431,400,600,7053,1722,1145,700,1400,1045,2200,600,1624,2214,4500,4775,300,700,1124,2750,1661,900,2100,1558,903,1100,1380,1902,1363,1600,1284,1600,1000,1803,300,1200,440,700,2600,100,325,1000,4727,2100,1300,800,2636,1815,6321,600,1120,800,1698,2073,2410,4501,4926,800,1706,2900,953,700,1167,3254,3243,650,1000,1332,3004,2680,2432,1373,3241,1310,800,5352,5370,11350,2600,475,2294,3304,1223,100,2204,2097,1200,1801,2300,1000,7255,3554,1397,3526,2100,3881,4312,3546,2253,7065,4408,3002,3800,2917,3000,5823,4712,4614,4536,2900,6800,8517,10361,6964,15556,12978,15176,20393,44884
2019-05-16,21061,5713,900,4129,2549,1800,4654,3400,1400,1920,1793,1770,4468,4499,22100,20615,3278,5815,5850,4800,3044,6554,2200,3900,3553,8402,9992,1400,3450,4512,16850,2149,12353,4200,2100,1535,2122,2103,3484,700,2207,1051,4994,600,2100,600,2400,2730,750,4351,6116,1827,2800,4966,7470,3366,900,1400,800,300,2139,1100,1400,2725,1433,3094,4613,1982,500,861,7382,850,0,2439,1945,1260,1043,1350,748,3875,9047,6225,3069,600,2525,2800,552,1625,3600,1100,29632,5933,15120,9313,4173,600,1458,3829,2671,1294,2519,4500,6930,1788,14050,1000,2171,2825,3241,6346,3187,4506,2964,1004,5201,5268,8479,900,3123,4900,3926,2377,2479,8736,6794,2860,5771,1522,1509,1100,3261,6867,738,900,1396,500,878,3410,3800,2100,700,1616,1100,2683,1618,4600,10760,14279,4523,2918,100,2158,2842,730,400,1000,1584,904,700,2634,799,900,1099,1200,2327,600,1100,800,600,882,1888,724,200,300,1266,1200,1271,562,1802,500,1700,200,1100,1032,1886,1273,1510,2312,1428,1358,1121,1220,2200,700,700,900,1013,905,1200,25859,320,3001,1400,400,1797,800,953,1400,1200,3191,913,2154,1300,1653,500,3013,1300,400,1900,1852,400,1900,3328,4280,100,735,1700,100,2000,639,625,3327,800,523,1382,881,800,700,462,800,4288,1807,1000,0,592,5064,732,1100,1000,3622,2349,2000,3600,1779,2612,1100,1723,3803,900,3875,2202,800,1300,925,1205,2350,891,200,4692,1890,4757,1330,10127,2538,2259,1005,1331,2943,600,2102,320,2636,1200,1349,1600,1890,328,5053,200,1319,4628,1600,200,300,1408,802,1500,3391,2400,1771,1799,1200,1800,1900,1181,1412,2866,1843,841,709,2665,822,2370,1127,1158,1984,900,2331,1095,1018,1804,3154,5625,1945,2000,800,2300,6700,2494,457,3943,1700,1892,2400,1950,1822,1341,3259,6739,975,1300,940,3017,1474,1338,4316,746,4319,200,2400,3416,1530,2809,4065,5834,6963,13856,10155,1730,12001,4571,7403,5581,6011,2050,3036,4100,4365,2800,3323,3600,6451,9461,5396,3656,6109,8562,7332,7900,4656,13586,4229,10425,6523,8509,17992,15936,18976,19609,53795
2019-05-17,89800,1156,2958,3500,2481,1800,4558,2774,1000,1400,6474,2940,3388,26000,3100,3339,1114,1746,3028,2024,2126,1131,895,1426,0,500,1500,3500,1550,875,3217,3700,2910,712,600,4623,7022,6723,3255,1900,5211,1900,2100,1081,4760,1200,1400,14110,9755,4804,2331,2320,2571,2306,2120,1800,2554,4715,3286,5175,3800,1625,3406,7103,8466,1810,5110,5134,5529,4465,1862,4377,9744,13396,6937,4630,6706,6189,3546,6139,5602,2191,2305,6364,13219,7851,5065,1485,1400,3456,8041,2337,15078,3487,7147,9273,15903,13400,15165,12515,6219,33899,8900,6372,5759,5282,9106,4770,6252,7900,3600,17196,3950,9046,25893,8500,6190,2500,2456,12878,5350,2800,6391,3984,2356,1500,2656,2121,1600,2778,2801,10352,2703,3696,1195,1417,2436,3913,5100,5605,9141,8350,1600,3400,33619,4150,1400,4900,1600,2300,6824,3897,8350,3600,12756,5900,1386,600,2100,2032,7925,2445,3300,1600,1252,1931,1142,1912,1200,1010,505,6228,900,406,1497,1908,1570,1139,8592,6523,5683,3095,3746,3267,3905,601,13231,11584,5186,3675,1300,7450,960,1803,1400,1300,2536,2600,4054,3468,2400,2901,2520,1400,1700,2023,5872,1203,2335,3081,9852,1471,4592,4000,3400,1400,2270,1586,2600,3900,1300,2032,834,500,700,1657,1900,1880,2745,1200,1770,924,2100,800,400,2125,1916,5985,1100,1200,1900,2437,1864,2300,600,1200,1700,1137,8606,2800,800,2645,1600,1400,201,2525,0,301,346,1100,2100,1000,2828,2140,962,1700,1314,1342,1500,3500,600,2321,1400,750,1830,3957,500,2906,2000,9946,1626,5804,1675,4856,3707,6117,2000,2278,2356,3500,3400,4361,5000,3979,1316,3294,2800,1523,1900,4704,1016,4099,10201,6542,5667,4702,2556,4500,1200,3500,4314,1700,1538,914,3153,2700,900,1501,2307,2358,2252,2203,8578,1406,2100,2600,2000,4001,2057,4061,2400,8515,2097,2267,1700,1895,11989,3121,1107,2705,3958,3110,4206,7173,1913,2274,4010,3096,3310,1416,4400,3300,4098,3327,3585,1328,3875,6010,9050,3969,6473,5070,8000,7863,5815,7478,6689,9681,8300,4948,6473,8860,6362,10238,14265,9266,11574,10350,13808,18028,12496,19301,20089,34575,16526,28761,35373,29459,27667,52451
2019-05-20,20838,600,8716,2400,6928,9740,5685,2500,4650,3275,4107,1200,1600,1100,1440,2400,2395,3636,3475,1104,5092,700,700,2545,934,842,1271,2051,1891,700,3495,3100,1000,1116,2235,1170,2968,1700,1300,3608,1606,1400,800,4812,800,1323,10314,4566,1100,3950,3200,3719,1510,4700,1630,3420,8993,1215,1376,2056,1600,2900,1600,7527,27036,3592,2912,3642,6050,3366,1960,1614,700,1803,4044,3170,4050,3698,1300,2100,2204,1200,1663,5763,2000,800,700,1900,3100,1997,700,1900,7600,2700,3050,1600,1500,3200,2943,1387,6800,2214,1000,700,2049,900,10032,8377,7500,6200,2550,5920,800,3870,8579,770,8099,7900,3900,100,2637,900,3403,4501,17147,4205,3984,12896,10838,19020,3105,1300,300,1300,720,1000,2811,760,802,2350,500,2043,800,1915,200,1055,931,300,300,200,715,600,2300,870,300,1000,575,900,1050,958,4000,800,900,1600,700,1095,5114,945,1148,1900,400,1561,800,300,300,2319,500,602,1200,2168,260,3970,900,550,300,7600,703,1800,850,1325,400,396,1300,1926,1869,100,513,1200,800,1055,717,400,624,1311,1700,100,2500,300,700,100,3241,2100,1740,700,964,300,600,800,527,900,400,3994,500,1300,4569,1623,1300,600,100,1425,1800,600,700,417,1700,2935,5859,786,2943,2043,300,6453,3900,1280,450,700,600,200,7025,2990,647,245,630,1200,9844,5798,1500,600,4600,300,1200,1700,1196,1574,1130,1782,1100,1200,800,1781,200,1350,1103,505,611,300,300,300,600,300,300,400,800,406,1000,2489,510,900,1130,600,2300,631,300,77689,600,2316,710,1540,500,1100,700,5300,3300,609,5600,900,2050,500,0,1900,900,300,3152,700,0,2164,100,3359,2258,2103,2635,320,0,1099,2700,570,7164,2774,2008,500,1500,710,600,1394,1627,500,8063,3386,908,1650,700,1400,3737,3045,9063,1000,5187,10910,1301,1870,400,1200,1140,500,2000,2905,1312,1800,3364,2644,4472,5042,6221,4852,3755,9988,10848,7615,2750,7878,6340,2896,1445,6678,3700,7161,5423,3688,3948,3952,5925,6705,11731,8497,12820,17564,18989,32503,28947,85771
2019-05-21,23954,1083,2013,1100,2578,1516,3400,1350,1000,765,1650,7425,1500,2522,3000,2063,1700,3587,2070,6825,4320,2850,3100,1300,3476,2858,1700,2521,1350,633,4442,3397,3600,4170,3020,2854,1105,1600,2150,14345,6751,3400,3400,1535,1250,6410,1188,1859,4905,1650,1100,900,1103,2338,3196,1400,6298,7098,5133,3246,1800,1823,300,5295,3018,1200,1000,2600,7209,3586,2001,2475,2787,5855,2448,1823,6522,400,1172,531,1000,3400,2600,1200,1754,1200,6050,600,2600,1000,5233,5201,3347,12800,68720,77477,1800,4173,2700,7000,10669,3038,1650,1600,7076,18375,10370,5825,7289,1402,1401,8912,2685,2072,2100,3786,2855,1603,596,1900,700,400,500,1101,300,1650,1340,400,1691,10706,4204,2450,1400,1600,1500,300,1200,500,1200,2804,5715,2143,2066,700,1200,1200,11578,4740,1350,800,1100,1500,2000,1100,1438,1251,600,200,400,1200,300,500,100,8008,1300,400,477,2235,820,1509,800,903,400,100,2515,400,645,1200,900,700,1500,616,200,2007,1200,700,3150,1311,367,2060,200,448,400,322,1711,1492,1300,1436,500,900,1329,780,535,1700,2232,375,100,1848,782,542,730,700,2440,1000,236,1375,2310,3050,900,302,700,800,2023,200,1400,1110,1152,700,1100,1711,325,800,1000,900,600,1220,3096,300,1127,1200,2156,800,800,200,562,3600,3416,1400,649,2101,800,1350,500,1674,200,625,2750,100,670,700,1309,800,1275,600,928,500,1258,300,400,400,900,280,965,531,3299,300,900,800,2274,2000,1152,100,2981,600,1189,3214,3396,500,2201,2369,600,100,4200,3005,1100,3960,1988,2300,500,1250,794,1223,2500,700,1300,3000,400,1192,100,996,19373,7284,2250,1703,1100,768,1065,5981,4227,2130,900,1763,1600,609,200,1450,908,2439,400,700,1400,2312,550,2864,708,1700,400,1070,1360,1401,0,1165,3528,454,1022,300,3966,700,3013,1777,2326,3119,1502,1300,1470,1030,900,3240,5119,5028,1720,4106,3812,4220,3782,10952,5138,8215,7104,9225,4800,9401,8257,2648,3536,7337,5706,10277,6739,4458,9842,7546,12902,12928,9691,7397,8493,12865,20357,86023
2019-05-22,36635,2325,2000,1325,5040,5757,1800,4174,737,2450,200,4987,1842,3300,992,2480,1900,2354,1200,4717,1500,1740,2169,1300,9304,8248,1800,1028,2592,3300,900,5103,1237,1700,1700,1100,1600,1500,900,0,798,4809,4675,2417,8218,21957,14491,3705,1575,2106,3481,1817,1300,1751,6146,1170,1856,38353,2743,3692,15206,2682,4777,10435,1011,3779,3338,5977,1300,2311,3003,10274,2853,488,2596,5292,2017,3594,1300,814,5291,1802,4414,1341,1800,821,1495,15301,2164,12151,2800,5100,8033,25507,4865,4759,5777,4300,11081,9071,3900,6367,5195,16146,24222,10100,7078,8862,2694,1126,3738,3452,5152,3650,3082,4299,1700,1702,1691,2631,1700,928,2310,8956,6943,2100,7291,7325,3170,4405,4528,801,4457,2088,2107,3400,1684,1100,2355,1550,3619,4887,2015,36550,3600,3881,2700,4378,4587,10056,5425,5400,3002,2400,2600,2490,4200,950,511,800,4047,2470,14295,900,2100,7392,5600,2100,2222,1543,1325,1622,500,400,4200,4100,1900,900,1600,1800,2829,1800,1700,1121,500,100,3865,6495,3744,13331,3100,2150,1400,200,1517,430,3112,1105,710,306,2689,2654,300,3699,39988,300,1325,4169,1920,1200,2400,815,2342,1693,5195,2448,1296,100,1385,2644,900,859,500,905,1300,1780,535,800,797,1500,1731,1879,1500,658,2200,1045,9300,800,4823,1374,2200,300,400,600,2000,600,1403,800,556,406,12140,2150,1400,3021,7067,2702,948,1600,1310,700,1527,672,1111,2850,1508,2824,1002,1300,659,1731,961,1717,2800,1426,1500,3612,1250,4338,1036,1000,800,4533,1467,645,2844,995,2901,1900,1300,2337,2636,1300,1599,4085,1675,4826,8954,5950,2435,3507,2165,2082,2437,900,2500,3782,4516,730,1952,2798,3500,2200,2300,1030,400,2690,5772,4372,1405,1876,3453,2625,6260,5323,1350,6099,3422,1964,4845,3957,2863,3968,1336,3700,614,11130,3818,2334,3114,6675,1322,5274,2815,3600,7995,3715,2032,3266,6303,1100,2396,2950,4710,3800,2207,5700,3239,4876,1887,25735,12361,3825,6613,3886,1373,4366,9229,5494,5506,8434,2068,4109,3698,4761,3152,6517,12998,4659,6223,10059,17849,12551,11302,11278,10766,19387,22580,27840,26501,91488
2019-05-23,40547,3500,5756,15778,11997,25814,4265,9366,9513,13345,18610,24181,7164,19710,11018,14550,49290,13018,11058,5289,5251,32507,46219,10670,6010,3845,2800,13857,8610,4130,7407,8858,4005,19966,13696,12040,5953,6805,4050,7249,3620,13446,7226,9931,12023,6296,6614,34356,19006,20952,6183,6239,6557,3862,11456,14241,20190,18245,16778,14366,15464,23345,22909,24131,26339,9002,2300,6242,2503,8720,5462,4359,6000,7304,45849,10211,3994,3889,12814,7392,14025,67915,41966,13562,7092,2032,5284,3703,1334,7252,16324,9564,12750,15372,12124,8118,3523,10166,7173,3217,2220,1427,26204,4400,7930,4243,2465,4950,19817,9086,6449,2100,2700,7062,24827,7579,9437,3416,7398,7067,11200,2800,7832,2567,8202,3625,6480,21705,4755,1830,4100,1735,4123,1446,4671,2068,3696,2646,2443,20800,17825,13229,24207,16757,7430,17956,6394,2000,4383,6244,2500,3000,8400,10741,2637,2000,5052,1776,8537,4533,1771,2000,1500,1839,1700,5710,700,8600,2200,5677,2001,2417,11808,5225,3103,4377,2183,49131,5600,1500,4923,3200,2300,7434,4775,3100,10747,2600,5732,12296,35021,16113,3800,7715,6867,12045,2562,4241,3514,2478,1600,6617,15244,22838,5086,1600,4000,5579,2188,4582,5940,6092,29614,8880,4037,1381,2100,2400,1900,2307,1700,600,3400,3538,6862,7195,6626,11612,8438,5952,5600,4500,10391,2336,1500,2609,1876,1900,3451,2359,2060,3781,1100,400,1647,2100,7850,1410,3530,5200,1180,3216,1047,2797,3600,2400,12958,36699,6476,14916,8600,5200,4568,2432,6878,6500,3450,7962,1800,2500,3642,10362,6124,500,4836,2300,1700,5727,5820,4102,6787,4723,2100,3740,2050,2325,1992,4435,1165,3575,1327,8780,1262,4640,6519,4668,6040,8169,8203,3864,5607,4750,9020,1434,4097,1638,5176,1668,4710,1600,2100,5425,2700,6203,3395,3282,2600,4717,4307,1900,3365,4227,3297,18092,1600,5138,3320,2686,3066,2830,1650,4080,5412,5693,2901,3086,1987,4909,4203,2800,1224,2211,7338,4465,2005,2900,5416,1750,8454,5356,6381,4693,3901,4725,4400,4040,2100,4097,8359,4699,15806,5054,11221,8253,11230,17252,12895,7440,8778,6156,11207,7764,12064,22645,16740,20487,9871,11070,11045,8816,15683,12992,16844,18084,15080,22050,19165,23438,35493,44160
2019-05-24,28636,4937,2592,2849,5338,3712,5187,3184,3226,2698,1007,3224,3000,1800,1954,3235,1588,7140,3634,6000,1200,6722,1408,2000,3188,1482,7762,3580,1348,1425,1350,2970,9170,4500,7256,7971,11566,4819,2602,3900,1400,2954,10270,5933,15021,3345,1007,23103,8647,2246,3202,4592,7150,7563,10500,3377,4400,5849,9883,2806,2614,2400,2472,2200,2030,4500,2000,1600,6010,1400,1479,2564,1738,9963,3499,600,2091,1900,2300,1429,2842,2614,500,5148,3480,2850,2900,362,4210,5265,5000,9558,11351,23637,8454,27704,44531,14334,6782,4999,23435,6140,5628,6461,2985,5194,3273,2585,3349,2697,11155,7791,8528,14814,6125,19703,1500,3835,3205,11516,9263,8012,3900,6448,5168,8766,2800,2788,3585,7757,9601,6526,7500,2325,3600,4000,3182,2100,5376,2724,3312,2110,2113,2212,1200,4118,1756,3600,3213,5048,13578,7657,2712,2000,2313,2271,1986,4013,1800,7144,2178,2201,1400,4431,3555,12324,5129,2811,7404,4839,6045,3532,2327,11777,2300,4616,4500,4902,35255,26879,12112,6859,3422,3983,3171,2920,0,11376,1590,5082,1600,7153,3152,4222,10997,1900,1470,6403,21361,23639,694,850,2000,1500,1495,1902,2759,6042,13009,15362,5130,3620,6734,6404,1912,2893,2635,6483,10997,7232,1309,6137,2691,5171,7141,23039,39128,19655,10613,4199,8479,8276,9718,30327,6033,6150,4176,2095,1900,17710,5240,4000,2585,1280,2808,8016,1600,1213,1900,6665,716,3429,2058,6420,823,4216,1816,2052,1200,3321,2826,7066,9683,1820,3024,7526,1814,2008,2533,4158,4258,7202,1402,3118,1935,2365,2000,2002,3200,2600,826,5035,4941,4212,1503,3569,9655,3822,8668,5116,12813,4599,3363,15600,5944,6776,1400,3253,4100,734,1709,2600,2226,2590,6090,5204,2050,5623,6357,14465,5190,5745,6600,7589,7424,5523,4475,1870,5694,4150,8641,2500,5800,3888,3595,5706,7301,6268,3452,7253,8624,17411,4715,4500,2089,10896,3966,2900,1320,4861,4029,7570,14810,7561,37572,37153,12502,2598,13544,12086,3200,5271,4914,10192,4983,7537,6828,6727,16165,13869,15392,15320,10809,13222,14479,7889,12183,11205,9472,20913,8094,8526,6710,10300,9082,6176,9703,27989,26870,12289,11888,13754,18251,11785,26296,23280,21835,21290,31589,124891
2019-05-28,32388,4315,2600,2939,3536,8284,4143,7015,3700,4350,4088,1492,8297,2976,3900,1800,3000,2929,3285,3200,3572,29215,1700,1600,3242,900,2444,5928,1450,6226,5282,25612,12700,4459,3700,1700,8173,3500,2588,4167,2500,2025,300,2400,6179,2008,3100,1600,3200,8000,1714,3400,2695,2830,2534,4915,3640,4300,7500,3300,3505,6300,5221,3864,3199,6239,8174,6570,1200,8277,3700,6118,22271,19611,6800,2925,3306,6909,24492,4680,3975,3940,5329,2800,2984,2500,2500,2500,1700,4301,4775,8915,3600,1700,3300,600,2080,7368,3350,4804,3255,4500,12297,4110,6291,2100,1100,5814,2589,603,2300,1493,6200,2227,1600,3733,2348,5164,2500,6527,6928,2678,1700,1880,2000,2629,1911,2201,2600,1710,2978,1310,2300,2346,1000,1000,400,570,1900,1400,2200,800,1860,1706,2312,2686,2000,1214,5278,6891,3194,5109,800,1200,2605,468,1308,1000,300,1209,700,1678,457,2900,1900,800,0,100,5000,5707,1300,1119,4390,1100,2654,1400,700,1100,614,1800,1931,5704,3150,5182,1275,2200,1100,1300,1500,13678,400,1366,3428,200,2899,3793,2300,1000,3342,3057,1900,1800,300,1738,1800,3610,700,3263,1168,2731,2800,800,2100,6472,1900,3555,3514,400,2900,900,1102,1000,2132,3630,2700,1441,2902,2504,3300,800,4909,1400,2900,1787,1400,3450,2300,8772,1932,3104,2900,2700,1900,1000,5378,400,4836,3050,1800,2749,4485,4200,2200,1200,2400,2300,2344,3161,4525,4300,4681,5678,4087,5025,5968,2716,5469,3015,5037,3200,3200,3106,3002,1940,4100,1700,5918,2500,1248,1200,2300,2795,1400,33548,9656,3700,2207,2870,1500,2400,1600,1100,2300,3814,4128,4100,2717,2835,2001,2410,7918,3000,800,3210,2798,2164,1536,2505,1500,3800,2100,1578,4527,6890,3248,1600,2200,1055,5903,1293,3702,3340,3319,38048,5400,1974,700,4700,3289,1950,2203,900,2619,5794,4491,737,4753,3235,5750,2133,5526,5045,3528,1252,1068,1450,1810,2259,2400,1803,3040,2225,10880,4271,900,1913,1004,7800,4100,2600,13021,3862,7735,2274,5439,10898,3709,11417,3662,3983,11107,6241,11538,12225,3395,10548,6013,8867,7554,7041,26067,25268,10446,11820,11062,14048,19595,23107,31430,56587
2019-05-29,47479,3448,7060,16500,5109,6657,12930,4600,2491,3153,6552,6420,5920,4800,7870,3607,2900,5896,6553,20118,25500,8906,6401,12306,22436,15835,8785,8449,4425,11442,11115,4800,6145,7850,7400,4381,2033,1129,4300,12924,2740,2600,2600,5596,3832,4027,4739,6846,6133,9467,6313,10347,7625,5202,9860,12248,8357,20298,10826,20235,15558,5585,9100,10292,11451,14011,15191,7037,8886,11315,7201,15144,17490,9679,12195,35689,10751,9900,8351,24689,6783,3255,2303,4681,3458,6935,3455,2000,5448,7696,5126,20750,30255,15934,6281,5428,1961,9750,25020,5733,5110,6835,1600,700,800,9794,6838,5591,2850,14456,10069,5511,2710,7059,7084,16008,2300,3423,2408,10118,13700,16170,12029,4620,8672,5656,7767,5412,3876,3341,7432,6400,7355,8690,6742,6166,4900,4119,4107,7476,13492,1990,4111,6849,3059,2861,2976,1700,1849,3123,7899,3100,3544,4856,1005,7003,8255,3341,1871,905,4526,6407,9426,6575,4100,4094,5155,3580,6769,9256,6309,5200,23025,3950,6400,2200,3500,3026,2415,1720,2615,8971,2105,39838,4580,2925,15193,3140,6000,3781,3700,1501,2700,3463,2803,13966,5635,4830,3639,11972,2700,2040,1844,2945,4600,2500,3100,4900,18621,16400,14694,30900,2832,2000,2826,19555,4400,2419,5417,13989,3506,1800,5211,4304,3332,3665,23222,1134,2092,4702,4101,3521,3110,6511,10331,950,500,7900,2540,2736,3165,3000,2615,1400,3102,9225,805,1800,2000,2236,1300,1941,1002,2203,807,4000,9300,12384,1820,2475,6143,2082,2864,4951,1402,1014,2325,1865,2700,1455,1200,1100,1500,2800,2050,2500,2419,1700,2100,3201,1200,2565,2700,4769,2700,4700,4300,2165,2467,1642,1800,2834,3202,1701,1600,3660,1200,2544,1300,2391,1900,4361,1311,1600,3555,4010,806,12598,9280,4872,3900,5630,6147,7559,2500,1817,1400,2000,1100,1700,2166,3515,2467,900,1700,4013,2502,5850,2900,5810,8590,12724,5730,11949,9700,2000,2206,2826,2300,2500,2000,2550,2400,2500,2150,3000,2607,4217,3030,3487,6346,3614,5021,3111,5877,6081,9924,12709,2710,5216,4312,5132,7883,4900,10623,6400,7129,5432,6078,3626,4346,4627,6708,9432,7647,9378,10327,9362,7281,8677,17689,14730,9922,11372,10684,22127,18017,26778,29836,99477
2019-05-30,200,400,42477,2565,4314,3600,1000,2700,5788,1671,1700,2005,1274,800,1800,6175,3050,2050,1282,3077,4000,1200,31362,6458,4100,10275,41751,16510,2583,2900,2033,1828,6289,1079,1265,2928,900,5450,830,765,900,2720,2900,1085,2514,1300,4103,900,13095,676,2544,2761,3291,1100,5569,5210,2506,5400,3124,1400,2781,4913,600,2447,3129,1562,5978,2800,2710,2105,2720,2200,7967,1705,5511,4282,2500,1200,2343,3105,11079,5028,9023,10172,3149,14856,33664,21922,8220,3214,8706,25348,19063,7751,14952,2520,16666,7408,8510,7321,6811,12218,4760,19975,7621,7071,5287,5009,3577,4939,19708,4850,11604,3155,4988,10548,24506,7909,2423,2000,8940,6490,9128,5001,6048,7891,6261,28343,5652,1300,4022,8241,4225,1135,810,2910,1046,715,5056,18629,5104,8860,7450,2200,2905,4015,3390,2379,3987,2801,3941,1819,1000,2800,4179,2114,5249,2908,2620,1701,1900,800,900,300,2343,3200,2929,3638,3102,2400,1846,2337,6982,1096,1200,5303,4726,2743,1900,2437,2802,4137,960,1100,2200,13098,1500,4707,2936,3100,6662,2888,2000,800,3466,815,1500,2248,4300,1900,5306,2800,2400,3803,1253,8246,2800,4169,3301,1382,6442,1861,1757,619,4058,8916,6158,1307,5103,9006,2789,4019,3138,1700,24333,3443,3610,1120,929,953,1100,700,1600,3300,1450,3900,1700,2100,7565,5345,14617,4395,2500,7010,2579,4060,5610,5618,2415,5014,3298,6447,2797,3617,1626,1900,2031,10334,953,5100,11925,4423,6649,2511,7864,14763,7858,2678,1301,1525,2615,2444,4107,2710,700,1019,2374,846,1560,4658,2012,1180,1196,2733,4269,3274,4226,2522,3855,2166,6080,7026,1900,3200,12480,4921,2100,800,1550,3183,1100,3576,3435,3178,4122,1308,3966,5470,1700,1225,2275,2305,1400,1217,4230,4206,2600,6384,1300,2030,1567,4082,700,3644,1187,1700,2000,1892,1000,3085,3351,3075,5200,3443,1993,6222,29533,9005,11600,5700,4188,3389,4435,5639,23745,4502,5182,8266,2001,8336,3176,3133,2613,5997,15485,7563,3100,4875,16984,4358,4826,7288,5041,8019,4246,20282,11836,14047,8365,5985,12844,15954,6106,11936,10007,17366,11124,5349,9238,10435,15902,16530,10572,18122,20737,22605,32226,39168,49102,54600
2019-05-31,105448,32855,34501,9672,8497,9925,8903,27301,20218,10276,27201,6986,7179,2800,7453,4757,19128,8513,3212,9910,4500,1900,2800,6134,35609,3016,14321,12000,5300,7015,16800,5200,6500,8244,11439,4000,3363,2600,1817,2939,5412,4817,5601,3612,11604,3438,4370,4882,2500,2000,2646,9110,6700,3937,9181,22045,2650,6047,3430,3896,3200,6810,2600,9099,30485,10878,17434,5845,18607,10303,3000,4700,14924,16056,43218,3828,10458,4752,7718,23423,10794,4922,5642,4425,8201,4954,9277,5094,1800,1600,6545,2689,7136,10735,4300,3900,4826,5380,12021,4400,5940,4680,5300,4367,2875,27645,11589,3620,2700,6421,4525,7858,15982,3922,19779,3825,1900,8970,9304,2900,16842,15047,14742,8981,10715,3500,15998,7134,15351,9813,11891,1700,6960,9239,6617,5600,3401,1641,1300,4527,5268,3425,1300,2900,1464,5468,6013,1600,2150,4258,2422,6355,5382,4005,400,2986,5383,700,2120,1800,1935,1940,4300,3718,3499,2894,1689,1600,1899,1157,1494,3316,3600,6954,2000,2100,3700,2000,4850,7907,4400,2200,1501,1549,2835,1307,1300,1700,2039,2100,2307,3517,800,2374,2670,500,1300,1500,4044,8316,1822,1260,400,1904,1490,1880,12350,1100,3572,600,1400,1254,2700,1215,993,2099,1900,1900,3415,2517,4739,3100,6713,3050,1000,5450,1800,1500,2100,1506,2990,2310,2200,2000,1800,1626,1655,2669,1400,927,1141,1883,1900,2235,2720,12400,2900,1300,1600,500,1800,1400,2700,2900,1700,2300,1400,2650,1900,950,4000,2834,3200,1282,1100,2700,12057,900,1700,1000,3900,2838,3000,5949,3999,3698,6516,8760,2300,1307,2875,4217,3653,33627,7932,6635,16722,7099,1317,2600,4644,7558,6804,2300,3588,8940,2961,4400,3497,3223,9317,14180,6506,10059,4700,5900,5700,4973,5689,2300,5356,12200,5480,4600,7655,4287,3200,3965,2104,3986,6347,1600,2067,6804,8000,3700,3190,4700,3000,4603,13550,3981,3394,2959,3403,2404,4860,2500,10385,8529,8817,7857,3864,3100,2350,4281,4410,4030,1644,6201,2600,3496,3673,8047,2900,6004,3270,5269,6051,4900,3482,10994,8780,3800,7191,7619,8288,2987,10023,10902,5368,8691,19821,7804,12505,7293,10954,26666,32897,14437,13511,17575,16178,21341,16671,40388,28606,32944,51957,169646
