,09:30,09:31,09:32,09:33,09:34,09:35,09:36,09:37,09:38,09:39,09:40,09:41,09:42,09:43,09:44,09:45,09:46,09:47,09:48,09:49,09:50,09:51,09:52,09:53,09:54,09:55,09:56,09:57,09:58,09:59,10:00,10:01,10:02,10:03,10:04,10:05,10:06,10:07,10:08,10:09,10:10,10:11,10:12,10:13,10:14,10:15,10:16,10:17,10:18,10:19,10:20,10:21,10:22,10:23,10:24,10:25,10:26,10:27,10:28,10:29,10:30,10:31,10:32,10:33,10:34,10:35,10:36,10:37,10:38,10:39,10:40,10:41,10:42,10:43,10:44,10:45,10:46,10:47,10:48,10:49,10:50,10:51,10:52,10:53,10:54,10:55,10:56,10:57,10:58,10:59,11:00,11:01,11:02,11:03,11:04,11:05,11:06,11:07,11:08,11:09,11:10,11:11,11:12,11:13,11:14,11:15,11:16,11:17,11:18,11:19,11:20,11:21,11:22,11:23,11:24,11:25,11:26,11:27,11:28,11:29,11:30,11:31,11:32,11:33,11:34,11:35,11:36,11:37,11:38,11:39,11:40,11:41,11:42,11:43,11:44,11:45,11:46,11:47,11:48,11:49,11:50,11:51,11:52,11:53,11:54,11:55,11:56,11:57,11:58,11:59,12:00,12:01,12:02,12:03,12:04,12:05,12:06,12:07,12:08,12:09,12:10,12:11,12:12,12:13,12:14,12:15,12:16,12:17,12:18,12:19,12:20,12:21,12:22,12:23,12:24,12:25,12:26,12:27,12:28,12:29,12:30,12:31,12:32,12:33,12:34,12:35,12:36,12:37,12:38,12:39,12:40,12:41,12:42,12:43,12:44,12:45,12:46,12:47,12:48,12:49,12:50,12:51,12:52,12:53,12:54,12:55,12:56,12:57,12:58,12:59,13:00,13:01,13:02,13:03,13:04,13:05,13:06,13:07,13:08,13:09,13:10,13:11,13:12,13:13,13:14,13:15,13:16,13:17,13:18,13:19,13:20,13:21,13:22,13:23,13:24,13:25,13:26,13:27,13:28,13:29,13:30,13:31,13:32,13:33,13:34,13:35,13:36,13:37,13:38,13:39,13:40,13:41,13:42,13:43,13:44,13:45,13:46,13:47,13:48,13:49,13:50,13:51,13:52,13:53,13:54,13:55,13:56,13:57,13:58,13:59,14:00,14:01,14:02,14:03,14:04,14:05,14:06,14:07,14:08,14:09,14:10,14:11,14:12,14:13,14:14,14:15,14:16,14:17,14:18,14:19,14:20,14:21,14:22,14:23,14:24,14:25,14:26,14:27,14:28,14:29,14:30,14:31,14:32,14:33,14:34,14:35,14:36,14:37,14:38,14:39,14:40,14:41,14:42,14:43,14:44,14:45,14:46,14:47,14:48,14:49,14:50,14:51,14:52,14:53,14:54,14:55,14:56,14:57,14:58,14:59,15:00,15:01,15:02,15:03,15:04,15:05,15:06,15:07,15:08,15:09,15:10,15:11,15:12,15:13,15:14,15:15,15:16,15:17,15:18,15:19,15:20,15:21,15:22,15:23,15:24,15:25,15:26,15:27,15:28,15:29,15:30,15:31,15:32,15:33,15:34,15:35,15:36,15:37,15:38,15:39,15:40,15:41,15:42,15:43,15:44,15:45,15:46,15:47,15:48,15:49,15:50,15:51,15:52,15:53,15:54,15:55,15:56,15:57,15:58,15:59
2019-04-01,96.16,96.15,95.88,95.705,95.91,95.92,96.35,96.175,95.97,96.295,96.27,96.25,-1.0,-1.0,95.99,-1.0,95.73,95.81,95.81,-1.0,95.82,-1.0,96.14,96.215,96.23,96.07,96.03,95.94,-1.0,95.85,96.09,-1.0,-1.0,96.18,96.44,96.455,-1.0,96.41,96.39,-1.0,96.22,96.09,-1.0,96.26,-1.0,96.19,-1.0,96.11,-1.0,96.08,96.15,96.16,96.17,96.11,96.11,96.065,-1.0,-1.0,-1.0,96.13,96.15,-1.0,-1.0,-1.0,-1.0,96.11,-1.0,96.34,-1.0,-1.0,96.3,-1.0,96.26,96.23,96.245,-1.0,96.3,96.31,96.31,96.49,-1.0,96.44,-1.0,96.37,96.36,96.38,96.5,96.56,-1.0,-1.0,-1.0,-1.0,96.62,96.8,96.73,96.615,96.59,96.53,96.48,96.51,96.475,-1.0,96.61,96.55,-1.0,96.52,96.52,-1.0,96.65,-1.0,96.515,-1.0,-1.0,-1.0,96.35,96.34,-1.0,-1.0,-1.0,96.43,96.38,96.37,96.29,96.22,96.29,96.3,96.27,-1.0,96.17,-1.0,-1.0,-1.0,-1.0,-1.0,-1.0,-1.0,96.01,95.97,-1.0,-1.0,96.06,-1.0,96.1,-1.0,96.28,-1.0,96.23,-1.0,96.37,-1.0,96.36,96.23,-1.0,-1.0,-1.0,96.305,-1.0,-1.0,-1.0,-1.0,96.19,96.23,-1.0,-1.0,-1.0,-1.0,-1.0,-1.0,-1.0,96.24,96.305,96.35,-1.0,-1.0,96.49,96.455,-1.0,96.41,-1.0,96.47,-1.0,96.5,-1.0,-1.0,96.47,-1.0,-1.0,-1.0,96.43,96.56,96.52,96.53,96.5,96.49,96.52,-1.0,96.56,-1.0,-1.0,96.6,-1.0,-1.0,-1.0,-1.0,-1.0,-1.0,-1.0,-1.0,-1.0,96.75,96.73,-1.0,-1.0,96.73,96.75,-1.0,96.72,96.69,96.71,-1.0,-1.0,-1.0,-1.0,-1.0,-1.0,-1.0,96.73,96.71,96.7,96.72,96.7,96.68,-1.0,96.725,-1.0,96.68,96.7,-1.0,96.74,96.74,96.77,-1.0,96.82,-1.0,-1.0,96.92,-1.0,96.77,-1.0,-1.0,96.83,-1.0,-1.0,96.79,-1.0,96.79,96.82,-1.0,96.84,96.9,-1.0,96.89,96.975,96.97,-1.0,96.92,-1.0,-1.0,-1.0,96.91,96.96,96.95,96.935,96.84,96.85,96.86,96.91,-1.0,96.94,97.02,97.04,97.04,97.07,97.03,97.07,97.12,97.1,97.1,97.12,97.11,-1.0,-1.0,-1.0,96.99,-1.0,-1.0,96.84,-1.0,96.81,96.845,96.84,96.87,96.91,-1.0,-1.0,96.98,-1.0,97.02,-1.0,97.01,97.0,96.94,-1.0,96.885,96.88,96.88,96.87,96.82,96.85,-1.0,96.88,-1.0,-1.0,96.81,96.81,-1.0,96.87,-1.0,96.89,96.89,96.91,-1.0,-1.0,96.9,96.91,96.88,-1.0,-1.0,96.84,-1.0,96.83,96.81,96.72,96.72,96.76,96.735,96.78,96.85,96.89,96.88,96.87,96.92,96.92,96.905,96.96,96.96,96.785,96.82,96.835,96.855,96.8,-1.0,96.81,96.81,96.77,96.74,96.81,96.91,96.91,96.8,96.85,96.9,96.93,96.955,97.025,96.955,96.915,96.93,96.945,96.93,96.96,96.91,97.02,96.96,96.97,97.0,97.05,97.07,97.05,97.045
2019-04-02,97.24,97.225,-1.0,97.3,-1.0,97.29,97.12,-1.0,-1.0,97.56,97.52,97.4,97.17,97.23,97.23,-1.0,97.065,97.06,97.05,96.96,96.91,96.97,96.91,96.975,96.99,97.11,97.21,97.34,97.405,97.37,-1.0,-1.0,97.67,-1.0,-1.0,97.665,97.665,-1.0,97.645,-1.0,-1.0,-1.0,-1.0,-1.0,-1.0,97.54,-1.0,-1.0,-1.0,97.56,97.59,97.77,-1.0,-1.0,97.67,97.51,-1.0,97.335,-1.0,-1.0,97.42,-1.0,-1.0,97.44,97.5,97.515,-1.0,-1.0,-1.0,97.15,-1.0,97.11,97.18,-1.0,-1.0,97.025,97.025,-1.0,97.05,-1.0,96.97,-1.0,96.87,96.945,96.97,96.84,96.71,96.705,96.73,96.72,96.67,-1.0,96.46,96.51,-1.0,96.58,96.59,96.51,96.65,96.525,96.57,96.59,96.625,96.54,96.27,96.25,96.25,96.48,96.505,96.5,96.58,96.55,-1.0,96.63,96.685,96.685,-1.0,96.66,-1.0,-1.0,-1.0,96.72,96.62,96.62,96.71,-1.0,-1.0,96.61,96.48,-1.0,96.54,-1.0,96.65,-1.0,96.73,-1.0,96.67,96.69,96.73,96.625,-1.0,-1.0,96.83,96.83,96.87,-1.0,96.83,96.85,-1.0,96.915,-1.0,-1.0,96.87,-1.0,-1.0,96.87,96.92,96.91,96.91,96.89,96.815,-1.0,-1.0,-1.0,-1.0,96.73,96.67,96.64,96.655,-1.0,-1.0,96.65,96.7,-1.0,96.64,-1.0,-1.0,96.56,96.4,-1.0,96.49,96.45,-1.0,96.44,-1.0,-1.0,96.57,-1.0,-1.0,-1.0,96.51,-1.0,-1.0,-1.0,-1.0,96.52,-1.0,-1.0,-1.0,-1.0,96.45,96.415,-1.0,-1.0,96.51,-1.0,96.49,96.48,-1.0,-1.0,-1.0,-1.0,96.53,-1.0,96.41,-1.0,-1.0,-1.0,-1.0,-1.0,96.66,96.57,-1.0,-1.0,-1.0,-1.0,96.57,96.55,-1.0,-1.0,-1.0,-1.0,-1.0,-1.0,-1.0,96.59,-1.0,-1.0,-1.0,-1.0,96.49,96.46,96.425,-1.0,-1.0,-1.0,96.53,-1.0,-1.0,-1.0,-1.0,-1.0,96.47,96.48,-1.0,-1.0,96.395,96.31,-1.0,-1.0,96.24,-1.0,96.33,-1.0,96.37,96.47,-1.0,-1.0,96.35,96.33,96.38,-1.0,-1.0,96.45,-1.0,96.53,96.5,-1.0,-1.0,-1.0,96.45,-1.0,96.51,96.4,-1.0,96.35,96.35,-1.0,96.33,96.315,96.26,-1.0,96.23,96.16,96.22,-1.0,-1.0,-1.0,96.295,-1.0,-1.0,-1.0,-1.0,-1.0,-1.0,96.31,-1.0,96.33,96.26,96.29,96.33,96.34,96.335,96.34,96.34,96.33,96.35,96.33,96.245,96.245,96.22,-1.0,96.21,96.1,-1.0,96.04,96.08,-1.0,96.21,96.19,96.215,96.29,96.27,96.315,96.3,96.38,96.31,-1.0,96.255,96.21,96.23,96.25,96.23,96.24,96.355,96.305,96.24,96.24,96.315,96.3,96.275,96.24,-1.0,96.25,96.245,96.25,96.18,96.225,96.17,-1.0,96.205,96.19,-1.0,-1.0,96.24,-1.0,96.265,-1.0,96.37,96.375,-1.0,96.35,96.38,96.32,96.285,96.29,96.35,96.33,96.35,96.34,96.31,96.305,96.285,96.255,96.305,96.25,96.2,96.19,96.205,96.14
2019-04-03,96.37,96.315,-1.0,96.185,-1.0,96.26,96.28,96.34,-1.0,96.08,96.015,96.025,96.09,96.14,96.135,96.18,96.24,96.285,96.18,96.15,96.23,96.15,-1.0,-1.0,95.955,95.99,96.0,95.845,95.85,95.84,95.735,95.65,95.645,95.645,95.45,95.5,-1.0,95.46,95.61,95.69,95.78,95.87,95.855,-1.0,95.81,95.83,95.985,96.13,96.12,-1.0,96.135,96.055,96.03,96.045,96.055,96.15,96.05,95.95,-1.0,-1.0,95.78,95.71,95.52,95.51,-1.0,-1.0,95.62,95.635,95.63,95.655,95.65,95.94,-1.0,95.94,-1.0,95.865,96.05,96.01,95.98,-1.0,96.08,-1.0,96.13,96.22,96.17,96.29,-1.0,96.09,96.11,96.11,96.0,96.09,96.145,96.23,-1.0,96.27,-1.0,-1.0,-1.0,-1.0,-1.0,96.0,95.87,95.77,-1.0,95.805,-1.0,95.71,-1.0,95.73,95.56,-1.0,95.5,-1.0,95.48,95.5,95.43,95.41,95.47,95.405,95.43,95.43,95.48,-1.0,95.36,95.43,95.33,-1.0,95.3,95.28,-1.0,-1.0,95.23,95.165,95.205,95.22,-1.0,95.13,-1.0,95.2,-1.0,95.31,95.36,95.35,95.39,95.38,-1.0,95.51,95.47,95.345,95.425,95.475,95.46,95.49,95.47,95.505,95.49,95.53,-1.0,95.64,95.66,95.56,95.415,95.335,95.33,95.41,95.38,95.46,95.41,95.4,95.44,95.38,95.41,95.38,95.44,95.46,95.4,95.45,95.39,95.3,95.345,95.36,95.355,95.335,95.15,95.12,95.16,-1.0,95.17,95.18,95.21,95.21,95.21,95.1,95.04,94.95,94.88,-1.0,94.905,94.87,94.865,94.915,94.84,94.865,94.78,94.73,94.77,-1.0,94.73,94.64,-1.0,-1.0,94.7,-1.0,-1.0,94.73,-1.0,94.7,-1.0,94.68,-1.0,-1.0,94.68,-1.0,-1.0,94.61,-1.0,94.58,94.51,-1.0,94.56,94.58,94.6,94.6,94.6,-1.0,-1.0,94.57,94.57,94.6,94.575,-1.0,94.52,-1.0,-1.0,94.52,-1.0,-1.0,94.51,-1.0,94.44,-1.0,94.36,94.36,94.4,94.38,94.36,94.35,94.39,94.35,94.275,94.3,-1.0,94.26,94.26,94.25,-1.0,94.125,94.11,94.13,94.13,94.13,94.055,94.0,94.01,94.0,94.005,-1.0,93.92,-1.0,-1.0,93.91,-1.0,-1.0,-1.0,-1.0,93.83,-1.0,93.82,93.8,93.83,93.96,93.97,94.0,93.98,94.07,-1.0,-1.0,-1.0,94.23,94.17,94.2,-1.0,94.22,94.21,94.19,-1.0,-1.0,94.3,94.26,94.225,94.3,94.25,94.18,94.155,94.22,94.21,94.21,94.22,94.225,94.23,-1.0,-1.0,94.4,94.41,94.385,94.375,94.36,-1.0,94.35,94.3,94.35,94.365,94.35,94.365,94.385,94.36,94.34,94.32,94.27,94.22,94.24,94.16,94.17,94.21,94.2,94.16,94.2,94.25,94.28,94.2,94.12,94.26,94.15,94.23,94.22,94.28,-1.0,94.315,94.42,94.38,94.355,94.415,94.355,94.395,94.365,94.345,94.385,94.31,-1.0,-1.0,94.3,94.365,94.35,94.38,94.36,94.36,-1.0,94.325,-1.0,94.35,94.275,94.27,94.16,94.02,94.07,94.01,94.01,93.92,93.94
2019-04-04,-1.0,-1.0,93.75,93.93,94.11,94.315,94.27,-1.0,94.31,94.37,94.33,94.41,94.23,-1.0,94.16,-1.0,-1.0,93.78,93.89,93.6,93.665,93.84,93.905,93.99,93.95,-1.0,-1.0,93.635,93.635,93.65,93.63,93.66,93.58,93.62,93.61,93.56,93.57,93.575,93.555,93.515,93.46,93.46,93.54,93.57,93.49,-1.0,93.46,-1.0,-1.0,-1.0,93.53,93.635,93.675,93.65,93.65,93.59,93.565,-1.0,-1.0,-1.0,-1.0,-1.0,93.3,93.23,93.2,93.16,-1.0,93.09,93.07,-1.0,93.04,92.95,92.97,93.015,93.0,93.265,93.295,-1.0,93.26,93.3,-1.0,93.27,93.3,93.215,-1.0,93.175,-1.0,-1.0,93.085,93.09,93.06,93.025,93.13,93.13,93.21,93.17,93.28,93.32,93.315,93.345,93.25,93.37,93.41,93.455,93.41,93.37,93.275,93.225,93.22,93.25,93.1,93.055,93.015,-1.0,93.145,93.31,93.315,93.345,93.405,93.375,93.325,93.23,93.205,93.31,-1.0,93.31,93.48,93.61,-1.0,93.695,93.68,93.62,93.69,93.67,93.71,93.71,93.71,93.765,93.745,93.78,93.74,-1.0,93.735,93.78,93.73,93.71,93.74,93.67,93.73,93.775,93.8,93.81,93.73,93.75,93.72,93.74,93.72,93.715,-1.0,-1.0,93.615,93.565,93.54,-1.0,93.42,93.36,93.29,93.21,93.2,93.37,93.39,93.49,-1.0,93.63,93.58,93.49,93.48,93.525,93.53,-1.0,-1.0,93.57,-1.0,93.46,93.41,93.56,93.53,93.49,93.49,93.46,93.49,93.46,93.43,-1.0,93.57,-1.0,-1.0,93.49,-1.0,93.57,93.59,93.59,-1.0,93.7,93.65,93.72,93.68,93.66,-1.0,93.59,-1.0,-1.0,93.55,-1.0,93.41,93.51,-1.0,-1.0,-1.0,-1.0,93.495,-1.0,-1.0,-1.0,-1.0,-1.0,-1.0,93.475,93.56,93.6,93.62,93.58,-1.0,93.575,93.59,-1.0,-1.0,93.55,93.63,93.575,93.595,93.68,-1.0,-1.0,93.63,-1.0,93.69,93.69,93.64,-1.0,-1.0,-1.0,93.615,93.585,93.62,-1.0,-1.0,93.67,93.63,93.52,93.46,93.6,93.59,93.65,93.765,93.705,93.66,93.755,93.77,93.675,93.63,93.6,93.615,93.605,93.6,-1.0,93.66,93.66,93.65,93.8,93.775,93.69,93.67,93.675,93.7,93.67,93.7,93.69,93.65,93.68,93.66,-1.0,93.715,93.64,-1.0,93.55,-1.0,93.6,93.46,93.5,93.48,93.54,93.6,93.67,93.64,93.69,93.72,-1.0,-1.0,93.655,93.66,93.645,93.65,93.555,93.52,-1.0,93.51,93.43,93.4,-1.0,-1.0,-1.0,93.33,93.385,-1.0,93.41,93.405,93.41,-1.0,-1.0,93.47,93.43,-1.0,-1.0,-1.0,93.4,93.45,93.42,93.4,93.38,93.38,-1.0,-1.0,-1.0,93.43,-1.0,-1.0,-1.0,93.51,93.51,-1.0,-1.0,93.425,-1.0,-1.0,-1.0,93.465,93.435,93.47,93.4,93.48,93.4,93.43,93.47,93.5,93.505,93.51,93.55,93.57,93.55,93.555,93.545,93.555,-1.0,93.485,93.54,93.64,93.64,93.63,93.63,93.64,93.64,93.6,93.67,93.65,93.62,93.61,93.63,93.61,93.68
2019-04-05,-1.0,94.43,-1.0,94.8,-1.0,94.68,94.74,94.67,94.65,94.65,94.55,-1.0,94.69,94.65,94.67,-1.0,-1.0,95.07,-1.0,95.31,95.41,-1.0,95.37,95.27,95.35,95.21,95.275,95.37,95.39,95.53,95.6,-1.0,95.71,95.69,-1.0,95.95,96.05,96.1,96.19,96.31,96.25,96.23,96.3,-1.0,-1.0,96.36,96.345,96.36,96.46,96.49,-1.0,96.55,96.6,96.61,96.555,96.64,96.64,96.6,96.475,96.44,96.445,96.485,96.69,96.59,96.605,96.585,96.64,96.67,96.62,96.63,96.61,-1.0,96.68,96.64,96.69,96.715,96.765,96.84,96.91,96.85,96.9,96.97,97.09,97.05,97.07,97.1,97.14,97.1,97.095,97.15,96.975,97.085,97.12,97.09,-1.0,96.94,97.06,-1.0,97.19,97.175,97.15,97.23,97.27,97.45,97.45,97.42,97.46,-1.0,97.44,97.43,97.7,97.64,97.59,97.59,97.53,97.48,97.34,97.135,97.12,97.14,97.04,97.09,96.97,96.92,96.81,96.84,96.96,97.005,96.96,96.95,96.975,97.015,-1.0,-1.0,-1.0,-1.0,-1.0,-1.0,-1.0,97.08,-1.0,-1.0,97.09,-1.0,-1.0,97.25,97.215,-1.0,-1.0,-1.0,-1.0,97.19,-1.0,-1.0,97.105,97.085,97.06,-1.0,97.11,97.11,-1.0,97.15,97.17,97.18,97.15,-1.0,-1.0,-1.0,97.23,97.18,97.27,97.26,97.27,97.2,-1.0,97.315,97.33,-1.0,97.35,97.37,-1.0,-1.0,-1.0,-1.0,-1.0,-1.0,-1.0,97.27,97.235,97.17,97.19,97.21,-1.0,97.21,97.27,-1.0,97.445,-1.0,97.42,97.42,-1.0,-1.0,97.57,-1.0,97.62,97.61,97.72,97.76,97.75,97.84,97.79,-1.0,97.865,97.9,97.92,97.92,97.93,97.94,98.06,98.05,98.08,98.05,98.03,98.02,98.08,98.04,98.015,98.06,98.08,98.11,98.09,98.19,98.245,98.26,98.23,98.17,-1.0,98.21,98.24,98.215,98.23,98.2,98.06,-1.0,-1.0,-1.0,-1.0,-1.0,98.26,98.365,98.35,98.29,98.25,98.26,98.245,98.17,-1.0,98.16,98.2,98.225,98.24,98.28,98.27,98.225,98.26,98.23,98.265,98.3,-1.0,98.4,-1.0,98.43,98.42,98.35,98.47,98.52,98.51,98.49,98.28,98.26,98.24,98.225,98.29,98.32,-1.0,98.43,98.5,-1.0,98.5,-1.0,98.36,98.31,-1.0,-1.0,98.3,98.25,98.23,98.24,98.385,98.42,-1.0,98.425,98.34,98.3,98.33,98.35,98.28,98.25,98.26,98.355,98.36,-1.0,98.435,98.41,98.37,-1.0,98.26,98.23,-1.0,98.23,98.19,98.2,-1.0,98.19,98.155,98.17,98.18,98.28,98.33,98.345,98.38,98.405,-1.0,-1.0,98.52,98.62,98.62,98.39,-1.0,98.365,98.395,98.44,98.43,98.44,98.47,98.4,-1.0,98.41,98.45,98.41,98.43,98.56,98.48,-1.0,98.41,98.4,98.41,98.44,98.47,98.445,98.44,98.54,98.51,98.59,98.63,98.53,98.46,98.47,98.45,98.46,98.535,98.54,98.515,98.475,98.43,98.43,98.53,98.51,98.53,98.46,98.5,98.43,98.47,98.44,98.53,98.59,98.64,98.66,98.68,98.725
2019-04-08,99.225,99.53,99.81,99.97,99.97,99.85,99.85,99.9,99.73,99.54,100.07,100.18,100.41,100.46,100.2,100.43,100.82,100.815,100.91,100.85,100.93,100.83,100.99,100.83,-1.0,100.61,100.215,100.31,100.13,100.35,100.195,100.09,100.15,100.15,100.045,99.97,100.15,100.05,100.015,100.01,100.06,100.0,-1.0,100.1,-1.0,100.15,100.17,100.4,100.485,100.53,100.53,100.385,-1.0,-1.0,100.47,100.455,100.29,100.42,100.36,100.32,100.27,100.17,100.13,100.16,100.135,100.16,100.27,100.29,100.27,100.35,100.41,100.37,100.34,100.265,100.21,-1.0,100.125,100.11,-1.0,100.075,100.26,100.31,-1.0,-1.0,-1.0,100.29,100.17,100.17,100.16,100.15,100.19,100.15,100.1,-1.0,100.01,100.04,99.99,100.0,-1.0,-1.0,99.97,99.93,99.81,99.8,99.69,99.62,-1.0,99.41,-1.0,99.29,99.15,99.16,99.265,-1.0,99.21,99.23,99.17,-1.0,99.24,-1.0,99.44,-1.0,-1.0,99.59,-1.0,-1.0,-1.0,99.375,99.48,99.495,99.405,99.35,99.37,-1.0,99.405,99.41,-1.0,99.48,99.48,99.545,99.54,-1.0,99.39,99.48,-1.0,-1.0,99.415,-1.0,-1.0,-1.0,99.36,-1.0,-1.0,-1.0,-1.0,-1.0,99.35,99.27,99.25,99.2,99.205,-1.0,-1.0,-1.0,99.12,-1.0,99.23,-1.0,99.39,99.405,99.41,-1.0,-1.0,99.37,99.4,99.415,99.46,99.44,-1.0,99.415,99.35,99.35,99.2,99.255,99.105,99.235,99.24,99.27,-1.0,-1.0,99.43,99.47,99.46,99.44,99.53,99.54,99.57,99.53,-1.0,99.405,99.47,99.5,99.51,-1.0,99.51,-1.0,99.61,99.63,-1.0,99.59,-1.0,-1.0,99.425,99.47,99.44,99.41,99.42,99.45,99.45,99.46,99.48,-1.0,-1.0,99.46,-1.0,99.36,-1.0,-1.0,-1.0,99.39,-1.0,-1.0,-1.0,99.43,-1.0,-1.0,-1.0,-1.0,99.4,99.36,99.32,99.3,99.41,99.36,99.37,-1.0,99.29,-1.0,99.435,99.415,99.52,99.46,99.41,99.475,99.435,99.49,99.49,99.505,99.51,99.5,99.5,99.52,99.41,-1.0,99.54,-1.0,99.455,99.44,99.495,-1.0,-1.0,99.475,99.38,99.46,99.48,99.495,99.49,99.29,99.35,99.35,99.37,-1.0,-1.0,-1.0,-1.0,-1.0,-1.0,-1.0,-1.0,99.34,-1.0,99.31,99.29,99.26,-1.0,-1.0,99.3,99.35,99.33,99.29,99.285,99.275,99.27,99.32,99.4,99.35,-1.0,-1.0,-1.0,-1.0,-1.0,99.255,-1.0,-1.0,99.29,99.31,99.305,99.26,-1.0,99.275,99.31,-1.0,99.37,99.415,-1.0,-1.0,99.42,99.455,99.44,-1.0,99.4,-1.0,99.315,99.32,99.32,-1.0,-1.0,-1.0,99.24,-1.0,-1.0,-1.0,-1.0,99.395,-1.0,99.28,99.32,-1.0,99.37,-1.0,99.49,99.47,99.47,99.47,99.41,-1.0,99.405,-1.0,99.405,99.36,99.35,-1.0,-1.0,-1.0,99.34,99.375,99.44,99.47,99.505,-1.0,99.38,99.405,99.41,-1.0,99.36,99.41,-1.0,99.39,99.41,99.41,99.39,99.42,99.39,-1.0,99.39,99.35,99.32,99.3,99.36,99.505
2019-04-09,-1.0,98.63,-1.0,-1.0,97.99,97.875,97.67,97.67,-1.0,97.85,97.93,97.86,-1.0,97.88,98.06,97.92,-1.0,98.13,98.14,-1.0,-1.0,-1.0,-1.0,98.23,-1.0,98.28,98.28,98.32,98.4,98.13,98.15,98.16,-1.0,97.91,97.685,97.745,97.825,-1.0,97.715,-1.0,97.715,97.775,97.82,97.76,97.73,97.77,-1.0,97.63,-1.0,97.665,97.59,97.61,-1.0,97.63,97.79,97.96,98.04,98.01,98.15,98.05,97.97,97.89,97.78,-1.0,-1.0,-1.0,-1.0,-1.0,98.08,97.87,-1.0,97.78,-1.0,-1.0,97.62,97.685,-1.0,97.68,97.65,-1.0,-1.0,97.53,-1.0,-1.0,-1.0,-1.0,97.59,97.55,97.59,-1.0,97.75,-1.0,-1.0,97.71,97.78,-1.0,-1.0,-1.0,97.79,-1.0,97.645,97.59,97.53,97.525,97.59,97.65,97.75,97.79,97.71,97.7,97.62,97.72,97.7,97.7,97.65,97.625,-1.0,97.72,97.76,97.74,97.71,98.04,98.1,-1.0,98.0,98.03,-1.0,98.07,98.02,98.12,-1.0,98.115,98.17,-1.0,98.24,98.26,98.33,98.34,98.33,-1.0,98.47,98.55,98.6,98.59,98.72,98.69,-1.0,98.655,98.665,98.66,98.725,98.82,98.79,98.815,98.85,98.875,-1.0,-1.0,98.97,99.02,-1.0,99.01,99.02,-1.0,99.17,99.17,99.19,-1.0,99.26,99.235,99.26,99.25,99.27,99.21,99.29,-1.0,99.33,99.33,-1.0,-1.0,99.36,-1.0,99.35,99.39,99.39,99.41,99.325,-1.0,-1.0,99.37,99.42,-1.0,99.44,99.565,99.515,99.5,99.515,99.455,99.39,99.38,99.32,99.265,99.2,99.165,99.09,99.12,99.1,-1.0,-1.0,99.02,-1.0,98.99,-1.0,99.005,98.97,98.935,98.96,98.98,99.03,-1.0,99.02,99.08,99.03,99.01,98.99,98.99,98.95,98.995,99.0,98.93,98.91,-1.0,98.91,98.87,-1.0,-1.0,98.88,98.82,98.84,-1.0,98.78,-1.0,98.72,98.66,98.66,98.69,98.66,98.69,98.81,98.85,98.89,98.93,98.93,98.91,-1.0,-1.0,-1.0,-1.0,-1.0,-1.0,98.87,98.89,-1.0,98.86,98.84,98.85,-1.0,98.89,-1.0,-1.0,98.92,98.845,98.835,-1.0,98.81,-1.0,98.79,-1.0,-1.0,98.71,-1.0,98.61,98.65,98.57,-1.0,98.73,-1.0,98.725,98.72,98.72,98.73,98.72,98.72,-1.0,98.7,98.67,98.705,98.77,98.8,-1.0,98.745,98.785,98.74,98.72,98.7,98.69,98.675,98.67,98.71,98.74,98.69,98.68,98.65,98.645,98.61,98.55,98.51,98.47,98.45,98.465,98.535,98.56,98.485,98.59,98.55,-1.0,98.5,98.5,98.425,98.385,98.49,98.54,98.495,98.5,98.55,98.56,98.5,98.475,98.52,98.495,98.53,98.56,98.53,98.56,98.535,98.55,98.54,98.5,98.46,98.435,98.32,98.33,98.36,98.34,-1.0,98.33,98.27,98.25,98.43,98.42,98.41,98.49,98.48,98.49,98.52,98.565,98.55,98.54,98.51,98.585,98.61,98.62,98.64,98.61,98.6,98.61,-1.0,98.7,98.7,98.69,98.68,98.68,98.67,98.685,98.65,98.56,98.555,98.55,98.53,98.61
2019-04-10,-1.0,-1.0,99.03,99.535,99.855,-1.0,-1.0,-1.0,-1.0,-1.0,99.47,-1.0,-1.0,99.67,99.68,99.63,99.73,99.78,99.76,99.78,99.78,99.71,99.535,99.63,99.59,99.53,99.475,99.45,99.565,99.34,99.43,99.38,99.425,99.4,99.27,99.29,99.43,99.27,99.16,99.15,99.19,99.205,99.24,99.315,99.19,99.17,99.18,-1.0,99.06,99.14,99.17,99.175,-1.0,-1.0,98.965,98.965,98.95,-1.0,98.89,-1.0,-1.0,99.1,99.03,98.94,-1.0,99.0,99.0,-1.0,98.83,98.81,98.815,99.05,99.1,99.05,-1.0,98.85,98.79,98.86,98.865,98.77,98.84,98.78,98.77,-1.0,98.89,98.83,98.94,98.83,-1.0,98.87,-1.0,98.91,98.88,99.01,99.02,98.94,99.04,99.02,99.01,98.99,98.935,98.95,-1.0,98.88,98.825,98.915,98.94,98.83,98.85,-1.0,98.8,98.86,98.85,98.82,98.9,98.96,98.905,98.865,98.83,98.865,98.905,98.955,98.93,99.0,99.05,98.975,98.97,-1.0,98.86,98.79,98.84,98.82,98.83,98.85,-1.0,98.87,98.94,98.94,-1.0,98.935,98.86,98.88,98.835,98.9,99.01,99.01,99.06,99.04,-1.0,99.1,99.15,99.19,99.18,99.21,99.17,99.24,99.25,99.41,99.42,-1.0,-1.0,-1.0,99.47,99.42,99.34,99.22,99.28,-1.0,99.41,-1.0,99.55,99.58,99.55,99.58,99.53,99.54,-1.0,99.47,99.42,99.4,99.305,99.31,-1.0,99.33,99.31,-1.0,99.32,-1.0,-1.0,99.41,99.405,99.4,99.385,99.37,99.34,99.33,99.33,99.27,99.28,99.26,99.25,99.25,99.27,99.32,-1.0,99.25,-1.0,99.25,99.22,-1.0,99.19,99.18,99.16,99.15,99.12,99.175,-1.0,99.12,99.14,99.15,99.22,-1.0,99.16,99.135,99.2,99.22,99.145,99.08,99.165,99.15,99.18,99.13,99.1,-1.0,99.14,-1.0,99.11,99.055,98.93,-1.0,-1.0,-1.0,-1.0,98.94,98.96,98.98,-1.0,-1.0,-1.0,-1.0,-1.0,-1.0,-1.0,-1.0,98.97,98.935,98.935,-1.0,-1.0,98.94,98.955,98.91,-1.0,98.87,98.86,98.82,98.835,98.84,98.835,98.815,98.86,-1.0,98.86,-1.0,98.77,98.79,-1.0,-1.0,98.78,-1.0,98.75,-1.0,-1.0,98.645,98.61,98.65,98.605,98.63,98.65,98.585,98.65,-1.0,98.555,-1.0,98.5,98.53,98.52,98.5,-1.0,98.565,-1.0,98.51,98.5,98.415,98.485,-1.0,98.56,98.62,98.6,98.68,-1.0,98.715,-1.0,-1.0,98.7,-1.0,-1.0,98.73,98.78,98.74,98.74,-1.0,98.7,98.69,-1.0,98.755,-1.0,-1.0,98.725,98.71,98.71,98.89,98.93,98.9,99.115,99.0,98.985,98.96,98.955,98.98,98.97,98.85,-1.0,98.85,98.85,98.855,-1.0,98.79,-1.0,98.72,-1.0,98.63,98.695,98.69,98.69,98.7,-1.0,98.8,98.83,98.83,98.85,-1.0,98.86,98.87,-1.0,98.825,98.77,98.795,98.735,98.75,98.73,98.745,98.735,98.65,98.62,98.625,98.625,98.605,98.58,98.605,98.59,98.6,98.52,98.49,98.5,98.48,98.59,98.62,98.66,98.765
2019-04-11,98.64,-1.0,-1.0,-1.0,97.9,98.07,98.09,98.04,-1.0,98.24,-1.0,-1.0,97.94,-1.0,98.27,98.3,98.95,98.93,98.915,-1.0,98.97,-1.0,99.05,99.05,98.98,98.91,98.9,-1.0,99.0,99.12,99.16,-1.0,-1.0,-1.0,99.39,99.33,99.305,99.205,-1.0,99.15,99.15,99.17,-1.0,99.25,99.27,99.43,99.41,-1.0,99.525,99.52,-1.0,99.735,99.64,99.67,99.67,99.65,99.66,99.45,-1.0,-1.0,-1.0,99.44,99.41,99.45,99.47,-1.0,99.37,-1.0,-1.0,99.54,-1.0,99.58,99.51,99.44,99.41,99.5,99.525,-1.0,99.36,99.23,99.29,99.305,-1.0,99.26,99.23,-1.0,99.025,99.07,-1.0,98.96,98.91,98.905,-1.0,98.69,98.7,98.59,98.595,98.735,98.81,-1.0,98.86,98.77,98.86,98.985,99.06,99.15,99.12,-1.0,-1.0,-1.0,98.77,98.83,98.68,-1.0,98.61,98.64,98.635,98.67,98.61,98.62,98.545,98.51,98.575,98.54,-1.0,98.555,98.495,-1.0,98.45,98.44,98.2,98.06,98.11,98.07,98.135,98.27,-1.0,-1.0,98.24,-1.0,-1.0,98.15,98.05,97.97,97.97,-1.0,98.135,98.21,98.115,-1.0,97.965,-1.0,-1.0,98.0,-1.0,98.01,98.07,98.155,98.13,-1.0,98.075,98.08,98.08,98.1,98.17,-1.0,98.105,98.07,-1.0,98.09,-1.0,98.03,98.04,-1.0,98.11,98.09,97.98,97.84,97.81,97.7,97.78,97.785,-1.0,97.81,97.75,97.68,-1.0,97.855,-1.0,97.915,97.875,97.835,-1.0,97.83,-1.0,-1.0,-1.0,-1.0,98.12,98.07,-1.0,98.275,98.32,98.27,98.31,98.405,-1.0,-1.0,-1.0,-1.0,98.45,98.5,-1.0,98.5,-1.0,98.46,98.5,-1.0,-1.0,98.575,98.5,-1.0,98.46,98.44,-1.0,-1.0,-1.0,98.485,98.5,-1.0,98.62,-1.0,98.78,98.92,98.92,98.83,-1.0,98.6,98.62,98.785,98.81,-1.0,98.65,-1.0,98.78,98.81,98.71,98.64,-1.0,-1.0,-1.0,-1.0,98.56,98.545,-1.0,98.585,98.64,-1.0,98.84,98.91,98.89,98.91,-1.0,-1.0,-1.0,98.89,-1.0,98.875,98.89,98.87,-1.0,-1.0,-1.0,98.845,-1.0,-1.0,-1.0,98.865,-1.0,-1.0,-1.0,-1.0,-1.0,98.98,-1.0,-1.0,99.01,-1.0,99.025,-1.0,-1.0,98.905,98.82,98.8,-1.0,-1.0,-1.0,-1.0,98.9,-1.0,-1.0,-1.0,98.91,98.87,98.87,-1.0,-1.0,-1.0,-1.0,-1.0,98.73,-1.0,-1.0,-1.0,-1.0,-1.0,98.825,-1.0,98.845,98.85,98.865,-1.0,-1.0,98.905,-1.0,98.77,98.705,-1.0,-1.0,-1.0,98.69,-1.0,98.725,98.73,-1.0,98.91,-1.0,-1.0,-1.0,98.85,-1.0,98.83,-1.0,98.82,-1.0,-1.0,98.91,98.96,98.91,-1.0,-1.0,-1.0,-1.0,-1.0,-1.0,98.81,98.78,-1.0,-1.0,-1.0,98.77,-1.0,-1.0,-1.0,-1.0,-1.0,98.81,98.78,98.79,98.78,-1.0,-1.0,98.77,98.75,98.71,98.72,98.73,98.7,98.75,98.79,98.83,98.85,98.85,98.87,98.96,98.93,98.97,98.91,98.95,98.94
2019-04-12,102.94,102.965,103.02,103.03,103.13,103.365,103.18,103.26,103.21,-1.0,-1.0,103.725,103.76,103.86,103.77,103.88,103.74,103.8,103.74,103.58,103.58,103.585,-1.0,103.71,103.795,103.82,103.855,103.58,103.42,103.45,103.24,103.15,102.9,102.95,102.9,102.92,102.74,102.71,102.69,102.89,102.975,-1.0,102.965,102.94,102.9,102.88,102.88,-1.0,102.76,102.78,102.76,102.92,103.13,103.29,103.36,103.415,103.44,103.415,-1.0,103.38,103.175,103.3,103.38,103.26,103.21,103.04,102.94,103.01,103.12,-1.0,102.73,102.7,102.725,102.74,102.72,102.805,102.91,102.77,102.685,102.75,102.87,102.84,-1.0,102.96,-1.0,103.03,102.9,102.97,-1.0,102.995,-1.0,103.015,102.9,103.06,103.01,-1.0,102.92,102.795,102.835,102.9,-1.0,-1.0,-1.0,-1.0,102.89,-1.0,-1.0,102.85,102.86,-1.0,102.805,102.85,102.89,102.9,102.95,102.9,-1.0,102.95,102.95,102.94,102.9,102.89,102.87,102.9,-1.0,-1.0,-1.0,102.92,-1.0,103.0,102.925,-1.0,-1.0,102.92,103.0,-1.0,-1.0,102.95,-1.0,102.865,-1.0,103.08,103.1,103.3,103.3,103.3,103.36,-1.0,-1.0,103.39,103.35,-1.0,103.39,103.335,103.295,103.375,103.29,103.31,103.4,103.42,103.4,103.33,103.32,103.32,-1.0,103.3,103.355,103.4,103.43,103.465,-1.0,103.435,103.4,103.27,103.22,-1.0,103.29,103.25,103.29,103.34,-1.0,103.49,103.455,-1.0,-1.0,-1.0,103.34,103.39,103.45,103.525,103.59,103.745,103.77,103.815,103.925,103.97,103.94,103.94,104.03,-1.0,104.08,104.06,104.09,104.115,104.22,104.335,104.315,104.45,104.46,-1.0,104.625,104.74,104.76,104.755,104.79,-1.0,104.72,104.74,104.6,104.71,104.775,104.76,104.645,104.745,104.725,104.64,104.73,104.74,104.745,104.78,104.765,104.76,104.77,104.755,104.845,104.93,104.955,105.01,104.98,105.015,105.01,105.08,105.1,105.065,105.055,105.1,105.2,105.25,105.255,105.34,105.445,105.49,105.51,105.5,105.545,105.6,105.39,105.2,105.17,105.27,105.38,105.405,105.42,105.48,-1.0,105.46,105.47,105.46,105.53,105.585,105.575,105.61,105.725,105.735,105.72,105.82,105.775,105.69,105.73,105.8,105.76,105.77,105.77,105.765,105.815,105.88,106.01,106.08,106.08,106.025,105.96,105.75,105.74,105.73,105.77,105.655,105.58,105.46,105.49,105.62,105.99,105.98,-1.0,105.77,105.83,105.875,105.845,105.67,105.68,105.55,105.54,105.51,105.37,105.295,105.235,105.14,105.17,105.215,105.19,105.21,105.115,105.34,105.26,105.135,105.17,105.29,105.175,105.175,105.27,105.33,105.31,105.6,105.6,-1.0,105.8,105.79,105.835,105.79,105.985,106.0,106.03,106.01,106.125,106.295,106.29,-1.0,106.295,-1.0,106.24,106.09,106.07,105.86,105.84,105.98,105.61,-1.0,105.61,105.585,105.6,105.82,105.78,105.6,105.63,105.67,105.67,105.63,-1.0,105.535,105.53,105.52,105.61,105.505,105.5,105.46,105.45,105.4,105.41,105.41,105.365,105.38,105.31,105.31,105.3,105.25,105.27,105.32,105.445,105.42,105.39,105.4
2019-04-15,-1.0,-1.0,104.02,104.04,103.91,103.49,103.38,103.56,103.48,103.765,-1.0,103.52,-1.0,102.9,102.92,102.86,102.965,102.87,102.88,102.98,102.975,103.035,102.985,102.95,103.09,103.13,103.13,103.435,103.6,103.6,103.47,103.75,103.91,103.78,103.73,103.745,103.735,103.6,103.8,103.67,103.57,-1.0,103.52,103.48,-1.0,103.45,103.555,103.58,103.46,103.45,103.36,103.38,103.435,103.49,103.44,103.31,103.33,103.32,103.19,103.175,103.02,102.93,102.82,102.825,102.85,102.74,102.705,102.83,102.69,102.69,102.67,102.595,102.64,102.515,-1.0,-1.0,102.49,102.46,102.47,102.44,102.605,102.56,102.59,102.625,102.58,102.655,102.62,102.57,102.555,102.695,102.685,102.535,102.39,102.305,-1.0,102.305,102.25,102.315,102.33,102.41,-1.0,-1.0,102.6,102.45,102.52,102.505,102.485,102.31,102.165,102.09,102.15,102.15,102.055,-1.0,102.12,101.985,-1.0,102.04,101.95,102.12,-1.0,-1.0,-1.0,102.27,102.29,-1.0,-1.0,102.32,102.37,-1.0,102.41,102.61,-1.0,102.455,102.49,102.435,-1.0,102.53,102.545,102.3,102.32,102.325,102.395,102.39,102.34,102.21,102.35,102.37,102.385,102.29,102.245,-1.0,102.14,102.15,102.15,102.22,102.37,102.25,102.27,102.35,-1.0,102.225,102.23,102.15,102.195,102.215,102.19,102.25,102.165,102.14,102.2,-1.0,-1.0,-1.0,102.15,102.15,102.115,102.115,102.1,-1.0,102.11,-1.0,102.05,-1.0,-1.0,-1.0,-1.0,-1.0,102.095,-1.0,102.165,102.13,102.21,-1.0,-1.0,102.045,102.14,-1.0,102.12,102.16,102.21,102.13,102.13,102.11,-1.0,-1.0,102.18,-1.0,102.19,-1.0,102.27,-1.0,102.25,102.36,-1.0,102.29,102.3,102.27,102.25,-1.0,102.15,-1.0,-1.0,102.13,102.1,-1.0,-1.0,102.085,102.035,102.09,102.085,102.155,102.17,-1.0,-1.0,102.33,102.25,102.27,-1.0,102.35,-1.0,102.41,102.375,102.35,102.36,102.32,102.33,102.37,102.43,102.45,102.37,102.43,102.465,-1.0,102.4,102.41,102.46,-1.0,-1.0,-1.0,102.47,-1.0,102.45,102.49,-1.0,-1.0,102.415,102.365,-1.0,102.38,102.48,102.5,-1.0,102.52,-1.0,-1.0,102.44,102.455,-1.0,102.455,102.45,102.42,-1.0,102.46,102.495,-1.0,102.485,102.49,-1.0,102.48,102.47,102.46,102.39,-1.0,102.305,-1.0,-1.0,-1.0,-1.0,102.22,102.23,102.08,102.08,-1.0,-1.0,-1.0,-1.0,101.885,101.82,101.85,101.68,101.65,101.53,101.5,101.5,101.5,-1.0,-1.0,101.55,101.51,101.475,101.62,101.63,101.7,101.7,101.71,-1.0,101.75,-1.0,101.71,-1.0,101.71,101.71,101.76,101.71,-1.0,101.845,-1.0,101.72,101.68,101.795,-1.0,-1.0,101.66,-1.0,-1.0,101.74,101.66,101.675,-1.0,101.71,-1.0,101.68,-1.0,101.665,101.73,101.69,-1.0,101.7,101.69,101.73,101.73,101.71,101.77,101.765,101.755,101.745,101.76,101.8,101.8,101.79,101.81,101.84,101.73,101.72,101.64,101.74,101.8,101.91,101.945,102.055,101.91,101.965,101.96,101.97,101.97,101.95,101.99,101.985,102.13
2019-04-16,-1.0,102.0,101.93,101.86,101.955,101.91,101.67,101.56,101.465,101.51,101.57,101.28,101.25,101.355,101.45,101.42,101.655,101.71,-1.0,101.445,101.275,-1.0,-1.0,101.235,101.37,101.37,101.325,-1.0,101.31,101.29,101.425,101.415,101.44,101.485,101.5,101.46,101.475,101.41,101.45,101.44,101.52,101.495,101.78,101.815,-1.0,101.76,101.59,101.585,101.54,101.59,101.66,101.69,101.71,-1.0,101.7,101.75,101.69,101.9,101.91,102.085,102.1,102.04,101.95,101.93,101.945,101.925,101.99,102.02,102.0,102.005,101.99,102.06,102.03,102.04,102.0,101.91,101.94,101.905,101.89,-1.0,101.875,101.8,-1.0,101.96,101.95,101.865,101.885,-1.0,101.83,101.65,101.645,101.63,101.56,-1.0,101.51,-1.0,101.41,-1.0,-1.0,101.45,101.51,101.72,101.65,-1.0,-1.0,101.88,-1.0,101.64,101.665,101.585,101.555,101.52,101.6,101.6,101.565,101.485,101.55,101.56,101.56,101.59,-1.0,101.595,-1.0,101.58,101.59,101.635,101.625,101.59,101.57,101.55,-1.0,101.59,-1.0,-1.0,-1.0,-1.0,101.68,101.65,101.71,-1.0,101.845,101.885,101.91,101.96,101.99,101.97,102.065,102.075,102.06,-1.0,102.07,102.09,102.04,102.085,102.125,102.135,102.17,102.195,102.17,102.1,102.095,102.105,102.11,-1.0,-1.0,102.14,102.165,102.2,102.175,102.195,-1.0,102.16,102.145,102.095,101.94,-1.0,102.01,101.98,-1.0,102.02,102.03,-1.0,102.1,102.135,102.185,102.185,102.19,102.16,-1.0,102.05,102.04,102.03,102.05,102.06,-1.0,102.1,102.14,102.15,-1.0,-1.0,102.1,102.07,102.08,102.06,101.99,-1.0,-1.0,-1.0,102.0,101.97,-1.0,-1.0,102.02,102.01,102.04,-1.0,102.09,-1.0,-1.0,-1.0,102.05,102.04,102.03,102.02,101.97,-1.0,-1.0,-1.0,102.005,102.03,102.07,102.085,-1.0,102.005,102.035,102.01,102.0,101.97,101.96,-1.0,-1.0,-1.0,-1.0,101.99,101.95,101.93,-1.0,101.89,101.9,101.94,101.96,101.965,-1.0,101.9,-1.0,101.945,101.95,101.95,101.985,102.06,-1.0,102.065,102.05,102.05,102.015,101.935,101.94,101.94,101.92,101.925,101.92,101.91,101.925,101.98,101.875,101.98,102.01,102.045,102.02,102.09,102.07,-1.0,102.16,102.17,102.16,102.235,102.27,102.3,102.35,102.55,102.475,102.485,102.585,-1.0,-1.0,102.635,102.725,102.77,-1.0,102.75,102.8,102.685,-1.0,-1.0,-1.0,-1.0,102.64,-1.0,-1.0,-1.0,102.73,-1.0,-1.0,-1.0,102.585,-1.0,-1.0,-1.0,102.53,102.52,-1.0,102.59,-1.0,-1.0,-1.0,102.55,102.57,102.565,-1.0,-1.0,-1.0,-1.0,102.535,102.49,102.46,102.45,102.46,102.43,102.465,102.51,102.53,102.51,102.5,102.48,102.51,102.525,102.51,102.45,102.465,102.39,102.41,102.385,102.35,102.41,102.43,102.43,102.43,102.44,102.475,102.49,102.505,102.53,102.66,102.58,102.495,102.465,102.47,102.5,102.39,102.34,102.33,102.37,102.34,102.36,102.295,102.37,102.37,102.29,102.35,102.325,102.305,102.3,102.3,102.355,102.38,102.365,102.38,102.39,102.38,102.39
2019-04-17,103.045,103.375,103.67,103.79,103.62,103.65,-1.0,-1.0,103.48,103.48,-1.0,-1.0,103.705,103.705,103.98,-1.0,-1.0,-1.0,-1.0,-1.0,-1.0,103.84,-1.0,-1.0,-1.0,-1.0,103.89,-1.0,103.89,-1.0,104.09,-1.0,104.03,104.12,104.39,104.42,104.21,104.28,-1.0,103.93,103.87,-1.0,103.65,103.785,103.78,103.68,-1.0,103.68,103.62,103.475,103.575,103.7,103.73,103.74,103.76,-1.0,103.81,103.81,103.73,103.83,103.84,103.99,-1.0,103.83,103.93,103.99,104.01,103.795,103.9,103.93,103.89,103.81,103.67,103.66,103.59,103.555,103.59,-1.0,103.57,103.61,103.5,103.5,103.48,103.485,103.47,103.58,103.45,103.43,-1.0,103.29,103.14,-1.0,-1.0,103.18,103.21,103.37,103.39,103.525,103.55,103.55,103.51,103.55,103.53,103.465,103.305,103.425,103.445,103.46,103.355,103.315,103.405,103.375,103.355,103.5,103.5,103.43,103.42,103.43,103.365,-1.0,103.37,103.28,103.2,103.23,103.115,103.2,103.31,103.31,103.26,103.19,-1.0,-1.0,103.16,103.23,103.2,103.19,103.14,103.1,103.11,103.205,103.22,103.0,-1.0,103.05,103.05,103.085,102.965,102.955,102.87,102.9,102.895,102.9,102.77,102.7,102.715,102.615,102.685,102.795,102.83,102.79,102.715,-1.0,-1.0,102.7,102.6,-1.0,102.585,102.66,102.86,102.77,102.78,102.715,102.62,102.64,102.585,102.58,102.67,102.645,102.7,102.69,102.72,102.72,102.735,102.71,102.68,-1.0,102.64,-1.0,102.59,-1.0,102.37,102.325,102.28,102.39,102.37,-1.0,-1.0,-1.0,102.42,102.5,102.57,102.56,102.54,-1.0,-1.0,102.57,102.59,102.55,102.45,-1.0,-1.0,102.44,102.39,-1.0,102.44,-1.0,102.5,-1.0,102.41,-1.0,102.46,-1.0,102.42,102.375,102.385,-1.0,-1.0,102.55,-1.0,102.665,-1.0,102.595,102.76,102.7,102.67,102.68,-1.0,102.725,-1.0,102.855,-1.0,102.84,102.83,102.75,-1.0,102.82,102.81,102.81,-1.0,102.8,102.8,-1.0,102.85,102.8,102.81,102.74,102.685,102.63,-1.0,102.61,102.51,-1.0,102.48,-1.0,-1.0,102.54,102.57,102.59,102.56,102.57,-1.0,102.57,-1.0,102.47,-1.0,-1.0,102.54,-1.0,102.56,-1.0,102.45,102.385,-1.0,102.345,-1.0,102.29,102.35,-1.0,102.32,102.335,102.285,102.25,102.22,102.2,102.1,-1.0,101.99,102.11,102.11,-1.0,102.05,-1.0,102.06,102.08,102.02,101.98,-1.0,101.87,-1.0,101.79,101.78,101.74,101.82,101.765,101.78,-1.0,-1.0,101.8,101.775,101.77,101.78,101.83,-1.0,-1.0,-1.0,101.745,101.74,-1.0,101.69,101.645,101.71,101.7,-1.0,101.79,-1.0,101.76,101.72,-1.0,101.775,101.68,101.575,101.59,101.56,101.58,101.63,101.59,101.495,101.45,101.525,-1.0,101.58,101.58,101.67,-1.0,101.595,101.6,-1.0,101.57,-1.0,-1.0,101.73,101.67,101.66,101.65,101.65,101.7,101.67,101.74,-1.0,101.78,-1.0,101.92,101.91,101.86,101.88,101.95,101.94,101.88,101.93,101.99,102.01,102.005,-1.0,101.855,101.87,101.84,101.81,101.9,101.85,101.88
2019-04-18,-1.0,-1.0,-1.0,-1.0,-1.0,102.07,101.86,101.73,-1.0,101.94,101.965,101.95,102.13,102.12,102.21,102.065,102.1,102.07,102.125,102.2,102.285,102.17,102.185,102.22,-1.0,102.07,102.13,102.18,102.31,102.33,102.325,102.25,-1.0,102.125,-1.0,102.24,102.24,102.34,-1.0,102.35,102.43,102.41,-1.0,102.41,102.475,102.5,102.53,-1.0,-1.0,-1.0,-1.0,102.45,-1.0,102.52,-1.0,102.51,102.49,102.54,-1.0,102.62,102.705,-1.0,102.72,102.74,102.67,102.69,-1.0,102.69,-1.0,-1.0,102.74,-1.0,-1.0,102.68,102.745,-1.0,-1.0,-1.0,102.91,102.97,102.955,102.93,-1.0,-1.0,102.88,102.95,102.975,-1.0,103.055,103.12,-1.0,103.18,103.19,-1.0,103.08,-1.0,-1.0,-1.0,103.15,103.195,103.265,103.17,103.24,103.2,103.08,103.075,103.0,102.98,103.06,103.08,-1.0,-1.0,-1.0,-1.0,-1.0,-1.0,103.23,-1.0,103.26,-1.0,103.48,103.505,-1.0,103.645,103.6,-1.0,-1.0,-1.0,103.715,-1.0,-1.0,103.76,103.74,-1.0,103.74,-1.0,-1.0,103.66,103.62,103.57,103.57,103.66,-1.0,103.51,-1.0,-1.0,-1.0,-1.0,-1.0,-1.0,103.725,103.9,-1.0,-1.0,-1.0,104.08,-1.0,-1.0,-1.0,-1.0,-1.0,-1.0,-1.0,103.93,103.88,-1.0,103.78,-1.0,103.74,-1.0,-1.0,103.8,-1.0,-1.0,-1.0,103.835,-1.0,-1.0,103.87,103.85,-1.0,103.81,-1.0,103.79,103.84,-1.0,-1.0,103.74,103.7,103.685,-1.0,103.69,103.67,-1.0,-1.0,-1.0,103.83,103.91,103.9,-1.0,-1.0,-1.0,-1.0,104.07,-1.0,-1.0,-1.0,-1.0,-1.0,104.045,-1.0,104.08,-1.0,-1.0,-1.0,-1.0,104.24,104.17,-1.0,-1.0,-1.0,104.18,-1.0,-1.0,-1.0,104.2,-1.0,104.19,104.17,-1.0,104.2,-1.0,-1.0,-1.0,-1.0,-1.0,104.24,-1.0,-1.0,-1.0,104.16,-1.0,-1.0,104.22,-1.0,-1.0,-1.0,104.24,104.215,104.25,-1.0,-1.0,-1.0,-1.0,-1.0,104.15,-1.0,-1.0,104.065,-1.0,104.055,104.1,-1.0,104.035,104.02,-1.0,-1.0,-1.0,-1.0,104.045,-1.0,104.17,104.19,-1.0,-1.0,-1.0,103.915,-1.0,103.89,-1.0,-1.0,103.87,-1.0,-1.0,-1.0,-1.0,103.75,-1.0,-1.0,103.81,103.74,-1.0,-1.0,103.81,-1.0,103.76,103.75,-1.0,103.82,-1.0,-1.0,103.85,-1.0,103.87,-1.0,103.99,103.96,-1.0,103.925,-1.0,103.93,103.89,-1.0,-1.0,103.93,-1.0,104.01,-1.0,103.915,103.915,103.85,103.78,-1.0,103.63,103.65,-1.0,-1.0,-1.0,103.71,-1.0,-1.0,103.67,-1.0,-1.0,103.47,-1.0,-1.0,103.44,-1.0,103.69,103.66,103.695,-1.0,103.78,-1.0,103.885,103.83,103.94,103.855,103.84,-1.0,103.98,104.04,104.08,104.025,104.1,-1.0,-1.0,104.04,104.16,104.115,104.09,104.095,104.065,104.105,104.16,104.115,104.075,104.07,104.11,104.1,-1.0,104.085,104.13,104.25,104.18,104.2,104.26,104.26,-1.0,104.24,104.155,104.09,104.08,104.04,104.0,103.99,103.95,103.92,103.91
2019-04-22,105.27,105.72,105.42,105.42,-1.0,105.69,105.72,105.795,105.76,105.89,105.73,105.63,-1.0,105.49,105.32,-1.0,105.33,-1.0,105.22,105.11,104.92,-1.0,104.81,104.795,104.89,104.91,104.9,104.92,-1.0,104.835,104.83,104.93,-1.0,104.925,105.055,105.03,105.25,105.275,105.21,105.25,105.28,105.37,105.2,105.095,105.17,105.075,105.1,105.125,105.15,105.2,105.28,105.35,105.43,105.38,105.4,105.38,105.58,105.69,105.77,105.84,105.84,105.79,105.78,105.75,105.485,105.34,105.455,105.46,105.49,105.38,105.29,105.23,105.335,-1.0,-1.0,-1.0,-1.0,-1.0,105.52,-1.0,105.67,-1.0,105.765,105.87,-1.0,105.81,-1.0,105.85,105.76,105.77,-1.0,-1.0,105.52,105.485,-1.0,105.34,105.33,-1.0,-1.0,105.56,105.6,105.68,105.78,105.73,-1.0,105.7,-1.0,105.62,-1.0,105.7,105.71,-1.0,105.62,-1.0,105.72,105.74,-1.0,-1.0,105.68,105.735,105.81,105.875,105.82,105.75,105.795,105.89,105.875,105.95,105.92,105.87,106.075,106.105,106.025,106.07,106.1,106.06,106.07,106.1,-1.0,-1.0,106.06,106.105,106.14,106.09,106.125,106.075,106.14,106.2,106.27,106.345,106.41,106.4,106.39,106.39,106.49,106.485,106.45,106.49,106.61,106.65,106.71,106.745,106.71,106.72,106.71,106.86,-1.0,106.85,106.85,106.83,106.84,106.75,106.65,-1.0,106.73,-1.0,106.7,106.69,106.78,106.8,106.81,106.87,106.895,106.92,106.965,106.905,-1.0,-1.0,107.05,107.02,-1.0,-1.0,-1.0,-1.0,107.04,107.03,107.01,107.05,-1.0,107.06,-1.0,107.115,-1.0,107.04,-1.0,107.0,106.83,-1.0,-1.0,106.93,106.91,106.96,107.01,107.11,107.15,107.09,107.14,107.12,107.15,107.24,-1.0,107.105,-1.0,-1.0,106.985,107.02,107.11,107.13,107.145,107.04,-1.0,-1.0,-1.0,107.03,107.01,107.03,107.07,107.095,107.1,107.1,107.055,-1.0,-1.0,107.1,107.1,107.03,-1.0,-1.0,107.11,-1.0,107.17,-1.0,-1.0,107.21,107.29,107.26,-1.0,-1.0,-1.0,-1.0,107.27,107.205,-1.0,107.24,-1.0,107.255,107.25,107.11,107.07,107.07,-1.0,-1.0,106.97,-1.0,-1.0,-1.0,106.935,106.95,-1.0,-1.0,-1.0,106.9,106.805,-1.0,-1.0,-1.0,106.79,-1.0,-1.0,106.78,-1.0,-1.0,106.67,-1.0,-1.0,-1.0,106.61,-1.0,106.68,106.64,-1.0,106.64,-1.0,-1.0,106.6,-1.0,106.5,-1.0,106.4,106.29,-1.0,106.35,-1.0,-1.0,106.57,106.55,-1.0,106.57,106.58,106.6,106.615,106.62,-1.0,106.735,106.75,106.745,106.77,106.72,106.77,106.765,106.755,106.8,106.785,106.79,106.75,106.71,106.73,106.775,106.77,106.74,106.715,106.65,-1.0,-1.0,106.64,106.62,106.65,106.65,106.66,106.7,106.66,106.65,-1.0,106.72,-1.0,106.705,106.715,106.695,-1.0,106.775,-1.0,106.8,106.86,106.855,106.885,106.895,106.895,106.88,106.86,106.88,106.92,106.86,106.87,106.87,-1.0,106.88,106.89,106.89,106.91,106.92,106.98,106.98,106.97,107.02,107.03,107.02,106.91,106.835,106.87,107.07
2019-04-23,106.995,106.71,-1.0,107.0,-1.0,107.165,107.46,107.5,107.26,-1.0,106.84,-1.0,-1.0,106.855,-1.0,106.98,107.04,107.08,-1.0,106.895,106.755,106.45,106.43,106.33,106.19,106.26,106.14,105.86,106.17,106.16,106.11,106.07,-1.0,106.18,106.14,106.21,106.2,106.05,-1.0,106.06,-1.0,106.03,-1.0,105.93,105.855,105.905,105.75,105.655,105.615,-1.0,105.505,105.595,-1.0,-1.0,106.0,106.01,106.0,-1.0,-1.0,106.18,106.14,106.225,106.25,-1.0,106.4,106.31,106.4,-1.0,106.39,-1.0,106.44,106.59,106.605,106.65,-1.0,106.64,106.625,106.63,106.59,106.53,106.565,106.6,106.55,106.735,106.74,106.74,-1.0,-1.0,106.85,-1.0,106.89,-1.0,107.01,-1.0,107.17,-1.0,-1.0,107.03,-1.0,107.06,107.19,107.2,107.22,-1.0,107.27,107.38,-1.0,107.22,-1.0,-1.0,-1.0,107.19,-1.0,106.95,106.93,-1.0,-1.0,106.85,106.83,106.83,106.8,106.92,106.87,-1.0,-1.0,106.66,106.655,106.62,106.68,106.805,106.815,106.71,106.73,106.63,-1.0,106.73,106.73,106.73,106.715,106.63,106.67,106.82,106.83,106.96,106.97,107.085,107.05,107.05,107.05,107.12,107.12,107.1,107.075,-1.0,107.11,107.19,107.26,107.36,107.41,107.33,107.395,107.315,107.39,107.48,107.555,107.6,107.51,-1.0,107.36,107.36,107.385,107.28,107.345,-1.0,107.35,107.355,107.48,107.52,107.505,107.455,-1.0,107.44,107.405,107.39,107.265,-1.0,107.34,107.47,107.595,107.63,107.57,107.62,107.55,107.45,107.51,107.53,107.595,107.7,107.5,107.57,107.59,107.69,107.71,107.75,107.72,107.64,107.735,107.79,107.74,107.665,107.65,107.62,107.655,107.715,107.7,107.66,107.625,107.605,107.59,107.55,107.55,107.51,107.56,107.585,107.595,107.56,107.56,107.585,107.615,107.65,107.635,107.6,107.6,107.59,107.42,107.35,107.2,107.355,107.34,107.325,107.425,107.31,-1.0,-1.0,107.33,107.385,107.39,107.405,107.42,107.43,107.41,107.405,107.405,107.38,107.46,107.425,107.415,107.41,107.43,107.45,107.5,107.53,107.525,107.5,107.49,107.54,107.52,-1.0,107.545,107.57,107.56,107.57,107.58,107.59,107.59,107.69,107.7,107.7,107.7,107.69,107.795,107.83,107.8,107.84,107.815,107.82,107.765,107.83,107.86,107.84,107.85,107.815,107.8,107.775,107.49,107.535,107.48,107.495,107.48,-1.0,-1.0,107.34,107.35,107.31,107.31,107.3,107.25,107.275,107.25,107.26,107.25,107.245,107.2,-1.0,107.25,107.29,-1.0,107.23,107.22,107.19,-1.0,107.12,107.1,107.045,107.045,107.03,107.06,107.12,107.15,107.115,107.12,106.915,106.81,106.81,106.8,106.83,106.805,-1.0,106.86,106.74,106.82,106.9,106.87,106.84,106.925,107.01,106.92,106.97,106.93,106.88,106.91,106.89,106.88,106.94,106.96,106.95,106.97,106.925,106.925,106.92,106.97,106.98,106.97,106.955,106.925,106.955,106.94,106.99,106.98,106.975,106.99,106.945,106.96,106.965,106.95,106.93,106.83,106.78,106.83,106.87,106.875,106.935,106.9,106.89,106.89,106.875,106.86,106.865,106.82,106.805
2019-04-24,107.495,-1.0,107.13,-1.0,107.36,107.305,107.07,107.03,106.81,106.48,106.29,106.19,106.32,106.32,106.05,105.97,105.94,105.97,106.045,106.0,105.98,105.97,106.17,106.2,106.15,106.17,106.09,106.0,-1.0,-1.0,-1.0,-1.0,-1.0,105.325,105.34,105.12,105.09,104.95,104.995,105.075,105.15,105.0,104.945,105.05,-1.0,105.17,105.295,105.31,-1.0,105.39,105.63,105.765,105.755,105.84,105.78,-1.0,-1.0,105.92,-1.0,-1.0,-1.0,-1.0,105.815,-1.0,105.94,-1.0,-1.0,-1.0,-1.0,105.99,-1.0,105.65,105.67,105.415,105.58,105.635,105.68,105.75,105.83,-1.0,105.73,-1.0,105.53,105.52,105.54,-1.0,105.54,105.56,105.57,105.5,105.51,105.52,105.5,105.53,105.545,105.53,105.53,-1.0,105.5,105.505,105.525,105.525,-1.0,105.54,105.57,105.51,105.515,105.505,105.52,105.51,105.5,105.5,105.51,105.51,-1.0,105.51,105.53,105.56,105.565,105.68,-1.0,105.63,105.635,-1.0,-1.0,105.69,105.71,105.55,105.62,105.595,-1.0,105.535,-1.0,105.705,-1.0,-1.0,105.67,-1.0,-1.0,105.5,-1.0,-1.0,-1.0,-1.0,-1.0,-1.0,105.58,-1.0,-1.0,-1.0,-1.0,105.665,105.63,105.585,105.59,-1.0,105.59,-1.0,-1.0,-1.0,105.58,105.53,105.56,-1.0,-1.0,105.56,-1.0,-1.0,-1.0,-1.0,-1.0,-1.0,105.49,105.65,105.67,-1.0,-1.0,-1.0,-1.0,-1.0,105.5,-1.0,-1.0,-1.0,-1.0,105.505,105.53,-1.0,105.5,105.48,-1.0,-1.0,-1.0,-1.0,-1.0,-1.0,105.535,-1.0,-1.0,-1.0,-1.0,-1.0,-1.0,-1.0,105.59,-1.0,105.59,-1.0,105.57,105.725,105.805,105.72,105.67,-1.0,-1.0,-1.0,-1.0,105.515,-1.0,105.52,-1.0,-1.0,-1.0,105.47,105.435,105.51,-1.0,-1.0,-1.0,105.48,-1.0,105.54,-1.0,105.51,-1.0,-1.0,-1.0,105.54,105.48,105.475,105.41,105.18,-1.0,-1.0,105.2,105.2,105.1,105.09,105.07,-1.0,105.04,105.06,105.04,105.015,105.035,-1.0,105.085,-1.0,-1.0,-1.0,-1.0,-1.0,-1.0,104.995,105.01,105.0,104.995,105.01,105.04,105.0,104.995,-1.0,105.12,105.16,105.12,105.23,105.22,-1.0,-1.0,105.28,105.28,105.32,105.27,105.205,105.15,105.165,105.26,-1.0,105.255,105.33,105.24,105.19,-1.0,105.23,-1.0,-1.0,105.2,105.21,105.24,105.225,105.24,105.235,105.23,105.22,-1.0,105.085,105.05,105.035,105.07,-1.0,-1.0,104.975,104.96,104.955,-1.0,104.995,-1.0,105.08,105.065,-1.0,105.04,105.08,105.16,-1.0,-1.0,-1.0,-1.0,105.105,105.07,105.06,-1.0,105.045,105.03,-1.0,104.99,104.98,-1.0,104.97,104.95,104.83,-1.0,104.74,104.76,104.745,104.735,104.7,-1.0,-1.0,104.75,104.75,104.735,104.75,104.755,104.75,104.75,-1.0,104.735,104.74,104.775,104.75,104.79,104.77,104.69,104.68,104.645,104.63,-1.0,104.59,104.56,104.47,104.385,104.4,104.43,104.5,104.59,104.56,104.535,104.5,104.42,104.45,104.405,104.34,104.27,104.225,104.285,104.305,104.16,104.1,104.07,103.96
2019-04-25,103.92,-1.0,-1.0,103.765,103.5,-1.0,-1.0,-1.0,103.96,103.92,103.77,-1.0,103.79,103.89,103.875,-1.0,-1.0,-1.0,-1.0,103.75,-1.0,104.03,-1.0,103.89,103.91,103.855,103.97,103.92,103.81,103.91,103.8,103.81,-1.0,-1.0,103.72,103.59,-1.0,-1.0,103.465,103.39,103.38,103.37,103.395,103.37,103.3,-1.0,-1.0,103.19,103.13,103.18,103.17,103.305,103.38,103.51,103.49,103.61,103.63,103.64,103.57,103.59,103.57,-1.0,103.34,-1.0,-1.0,-1.0,-1.0,-1.0,-1.0,-1.0,103.535,103.47,-1.0,103.4,103.45,-1.0,-1.0,103.54,103.625,103.67,103.705,103.715,103.715,103.71,103.74,103.51,103.41,103.34,-1.0,-1.0,103.305,103.28,-1.0,103.6,103.675,103.77,103.745,103.81,103.78,103.85,103.71,103.85,103.96,103.98,103.9,103.815,103.73,103.655,103.76,103.795,103.755,104.005,104.0,104.01,104.0,104.02,103.975,103.85,-1.0,103.93,103.885,103.745,-1.0,103.795,103.785,103.83,103.935,103.99,-1.0,104.02,104.0,-1.0,-1.0,-1.0,-1.0,103.89,-1.0,103.975,103.96,103.93,103.925,103.95,103.93,-1.0,103.975,103.995,104.0,104.02,104.04,104.05,104.02,-1.0,104.04,103.97,103.955,103.98,-1.0,103.88,-1.0,-1.0,103.96,103.91,-1.0,103.875,103.85,103.83,-1.0,103.83,103.79,103.83,103.8,103.79,-1.0,103.82,103.795,103.79,-1.0,-1.0,-1.0,103.7,103.655,103.645,103.69,103.62,-1.0,103.675,103.71,103.7,-1.0,-1.0,-1.0,-1.0,103.76,-1.0,103.69,103.71,103.68,103.66,103.71,-1.0,103.64,103.58,103.59,103.605,103.57,-1.0,-1.0,-1.0,-1.0,103.62,-1.0,103.68,-1.0,103.65,-1.0,103.59,103.57,103.64,103.625,-1.0,103.6,103.64,103.665,103.675,103.66,103.635,103.575,-1.0,103.56,103.57,-1.0,103.58,103.55,103.57,103.58,103.59,103.555,-1.0,103.63,103.66,103.61,103.6,-1.0,-1.0,103.65,-1.0,-1.0,-1.0,103.68,-1.0,-1.0,103.6,-1.0,103.62,103.55,-1.0,103.59,103.62,103.53,-1.0,-1.0,-1.0,-1.0,-1.0,103.33,-1.0,103.33,-1.0,103.29,103.26,103.23,-1.0,103.185,103.24,-1.0,-1.0,-1.0,-1.0,103.07,103.12,-1.0,103.055,103.005,-1.0,103.06,-1.0,102.99,-1.0,102.96,-1.0,-1.0,102.81,102.86,102.85,102.88,102.885,102.845,102.82,102.8,102.91,102.925,102.955,-1.0,103.03,-1.0,103.01,-1.0,102.91,102.91,-1.0,102.72,102.69,102.73,-1.0,102.69,102.735,102.73,102.85,102.86,102.855,102.93,102.9,102.9,102.88,-1.0,102.9,102.91,102.87,102.88,102.85,102.86,102.85,102.835,-1.0,102.82,-1.0,102.7,102.75,102.735,102.74,102.69,102.625,102.64,102.62,102.59,102.485,102.445,102.375,-1.0,-1.0,102.46,102.53,102.525,102.61,102.56,102.675,102.755,102.865,102.96,103.01,103.045,102.89,102.9,102.92,102.85,102.79,102.75,102.8,102.835,102.79,102.82,102.805,102.77,-1.0,102.82,102.87,102.845,102.82,102.66,102.615,102.58,102.57,102.58,102.6,102.605,102.605,102.41,102.275,102.16,102.13
2019-04-26,101.47,-1.0,-1.0,-1.0,101.7,101.62,101.28,101.03,100.99,-1.0,100.49,100.38,100.345,100.15,100.01,100.14,-1.0,100.2,-1.0,100.38,100.51,100.71,100.77,100.69,-1.0,-1.0,100.4,100.44,-1.0,-1.0,-1.0,-1.0,-1.0,100.25,-1.0,-1.0,100.09,99.81,99.72,-1.0,-1.0,99.53,99.53,99.495,99.465,99.635,99.54,99.49,-1.0,99.285,-1.0,99.04,99.13,-1.0,99.19,99.185,99.15,-1.0,98.925,-1.0,98.955,98.895,98.865,-1.0,98.93,98.89,-1.0,98.79,98.7,-1.0,-1.0,-1.0,98.54,98.53,98.45,98.53,-1.0,98.66,98.695,-1.0,-1.0,-1.0,98.445,98.5,98.31,98.31,98.02,97.97,97.81,97.83,97.73,97.75,-1.0,-1.0,97.7,97.73,-1.0,-1.0,97.53,-1.0,-1.0,-1.0,-1.0,-1.0,97.72,-1.0,97.99,97.92,-1.0,97.88,-1.0,-1.0,98.23,98.17,-1.0,98.015,98.01,98.07,98.12,98.29,98.25,98.105,98.09,98.01,98.0,97.915,-1.0,98.08,-1.0,98.225,98.195,98.21,98.21,98.17,98.235,-1.0,98.16,98.19,98.19,98.25,98.25,98.08,-1.0,-1.0,-1.0,97.92,97.86,97.71,-1.0,-1.0,97.85,-1.0,97.93,97.89,-1.0,97.94,97.95,97.85,-1.0,97.875,97.86,97.86,97.85,97.75,97.83,-1.0,-1.0,97.78,97.805,97.82,97.86,97.84,-1.0,-1.0,-1.0,-1.0,-1.0,-1.0,97.45,97.46,97.45,97.46,-1.0,-1.0,97.49,97.43,97.42,97.43,97.5,97.53,97.55,97.54,97.61,-1.0,97.61,97.65,97.68,97.68,97.62,-1.0,97.65,97.67,-1.0,97.57,97.56,97.55,97.54,97.51,-1.0,97.55,97.625,97.7,-1.0,-1.0,97.76,97.76,97.725,-1.0,-1.0,97.67,97.72,97.71,97.715,97.655,97.6,-1.0,-1.0,97.45,97.44,97.44,97.35,97.44,97.44,97.44,-1.0,97.475,97.47,97.37,-1.0,97.45,97.44,-1.0,97.52,97.55,97.51,-1.0,97.46,-1.0,97.42,-1.0,-1.0,97.36,-1.0,97.52,-1.0,97.51,97.48,97.47,-1.0,-1.0,-1.0,-1.0,97.39,-1.0,-1.0,97.49,-1.0,97.59,97.6,97.62,-1.0,-1.0,97.52,-1.0,97.45,97.45,97.415,97.4,97.32,97.33,97.29,-1.0,97.285,97.18,97.19,97.32,-1.0,-1.0,97.32,-1.0,-1.0,97.5,97.61,97.71,97.71,97.59,97.68,97.71,97.74,97.545,97.59,97.59,97.65,97.62,97.615,97.56,97.48,97.4,97.4,-1.0,97.49,97.43,-1.0,97.5,-1.0,97.39,-1.0,-1.0,-1.0,97.45,97.49,97.51,-1.0,97.53,-1.0,-1.0,97.47,97.51,97.56,97.47,97.48,-1.0,97.61,97.59,97.62,97.66,97.725,-1.0,97.695,97.675,97.615,97.58,97.45,97.41,-1.0,97.37,97.43,97.46,97.44,97.515,97.52,97.5,97.5,97.46,97.515,97.46,97.53,97.48,97.46,-1.0,-1.0,97.46,97.55,97.49,-1.0,97.545,97.68,97.72,97.735,97.75,97.74,97.715,97.705,97.605,97.66,97.655,97.645,97.62,97.585,97.64,97.655,97.655,97.66,97.705,97.78,97.86,97.97,98.1,98.13,98.15
2019-04-29,-1.0,-1.0,98.22,-1.0,-1.0,98.26,98.08,97.965,97.64,97.8,97.8,97.81,-1.0,98.095,-1.0,-1.0,97.97,98.075,98.115,98.07,97.9,97.84,97.77,97.67,97.59,97.51,97.55,97.35,97.39,97.17,-1.0,97.56,97.74,-1.0,-1.0,-1.0,97.83,97.82,97.55,97.5,-1.0,97.39,97.4,97.35,-1.0,97.14,96.9,97.11,97.13,97.2,-1.0,-1.0,97.15,97.12,-1.0,-1.0,96.955,96.93,-1.0,-1.0,96.89,96.97,97.12,-1.0,-1.0,-1.0,97.12,97.105,97.04,96.99,97.0,-1.0,97.03,-1.0,-1.0,97.04,-1.0,96.96,96.91,97.1,97.08,-1.0,97.0,96.93,96.92,97.01,96.985,96.92,96.84,97.0,96.87,96.95,96.88,96.96,96.98,96.96,96.87,96.89,-1.0,-1.0,96.94,-1.0,96.975,96.97,96.92,96.875,96.85,-1.0,96.89,96.89,96.89,96.935,-1.0,97.0,97.03,97.05,97.19,97.28,-1.0,-1.0,97.43,97.51,97.54,97.59,-1.0,-1.0,97.69,-1.0,97.71,97.65,-1.0,97.405,-1.0,97.405,97.325,-1.0,-1.0,97.38,-1.0,97.4,97.29,97.38,97.405,-1.0,97.37,-1.0,97.36,-1.0,97.45,97.46,-1.0,-1.0,-1.0,-1.0,97.62,-1.0,-1.0,-1.0,-1.0,-1.0,-1.0,-1.0,97.68,97.6,-1.0,-1.0,-1.0,-1.0,-1.0,-1.0,97.61,97.59,97.595,-1.0,-1.0,-1.0,-1.0,-1.0,-1.0,-1.0,97.6,-1.0,-1.0,97.47,-1.0,97.505,97.53,97.53,-1.0,-1.0,97.575,97.58,97.69,97.75,97.645,97.64,97.66,97.73,-1.0,-1.0,97.85,-1.0,97.705,97.7,97.67,-1.0,-1.0,-1.0,97.62,-1.0,-1.0,97.66,-1.0,-1.0,-1.0,-1.0,-1.0,-1.0,97.59,97.62,-1.0,97.725,97.65,97.62,-1.0,-1.0,-1.0,-1.0,-1.0,-1.0,97.55,-1.0,97.64,-1.0,-1.0,97.61,97.58,-1.0,-1.0,97.58,97.57,-1.0,-1.0,-1.0,-1.0,-1.0,97.56,97.505,97.48,-1.0,-1.0,-1.0,-1.0,-1.0,97.565,97.58,-1.0,97.56,-1.0,-1.0,97.7,97.675,-1.0,-1.0,-1.0,97.68,97.64,97.62,-1.0,-1.0,-1.0,-1.0,-1.0,-1.0,-1.0,-1.0,-1.0,-1.0,-1.0,-1.0,-1.0,-1.0,-1.0,-1.0,-1.0,-1.0,-1.0,-1.0,97.45,97.41,-1.0,97.5,-1.0,97.53,97.5,-1.0,-1.0,97.52,-1.0,97.52,97.45,-1.0,-1.0,97.53,-1.0,97.47,97.45,-1.0,97.39,-1.0,-1.0,97.31,97.3,97.33,97.29,97.34,-1.0,-1.0,97.335,97.305,97.24,-1.0,97.15,-1.0,97.09,-1.0,-1.0,97.035,-1.0,96.88,96.91,96.94,-1.0,97.06,-1.0,97.07,-1.0,-1.0,97.03,-1.0,97.07,97.07,-1.0,97.055,-1.0,97.1,-1.0,97.01,-1.0,97.0,-1.0,97.02,-1.0,97.01,96.89,96.91,-1.0,-1.0,96.91,-1.0,97.035,97.08,97.07,97.06,97.02,97.08,97.165,97.175,97.175,97.17,97.18,97.21,-1.0,97.155,97.175,97.195,97.16,97.22,97.23,97.195,97.215,97.195,97.145,97.145,97.155,97.16,-1.0,97.11,97.115,97.17
2019-04-30,98.09,98.31,-1.0,-1.0,97.75,97.71,97.58,97.51,97.48,97.56,97.35,-1.0,97.03,-1.0,97.14,-1.0,-1.0,97.02,96.97,97.03,96.94,-1.0,-1.0,96.91,-1.0,96.77,96.66,96.7,96.695,-1.0,96.58,96.605,96.61,-1.0,-1.0,96.435,96.4,96.4,96.33,96.325,-1.0,96.415,-1.0,-1.0,96.165,96.12,96.015,95.755,95.56,95.565,95.375,95.31,95.37,95.55,95.7,95.77,-1.0,95.91,-1.0,95.89,95.94,-1.0,96.05,96.22,96.23,-1.0,96.19,96.17,96.17,96.17,-1.0,96.15,-1.0,96.15,-1.0,96.01,95.895,95.66,95.57,95.57,95.75,95.785,95.82,95.85,-1.0,-1.0,96.08,96.04,96.145,96.175,96.21,96.13,96.085,95.99,95.78,95.72,95.66,95.59,95.46,95.46,95.485,95.535,95.42,95.37,95.41,95.62,95.61,95.51,95.49,95.58,95.65,95.645,95.675,95.85,95.915,95.94,95.93,95.935,95.91,95.94,96.0,96.05,95.965,95.89,95.98,-1.0,-1.0,96.04,96.14,96.15,96.15,96.05,95.91,95.875,95.855,95.74,95.64,95.495,95.75,95.84,95.88,95.89,95.92,95.805,95.78,95.87,-1.0,95.84,95.86,95.8,95.68,95.72,-1.0,95.7,-1.0,95.69,95.68,95.61,-1.0,-1.0,95.69,95.69,95.66,95.615,-1.0,95.58,95.55,95.535,95.46,95.505,95.515,95.54,-1.0,-1.0,95.46,-1.0,95.535,-1.0,-1.0,95.55,95.69,95.67,-1.0,95.61,95.56,95.54,-1.0,-1.0,95.525,95.52,95.46,95.525,95.51,-1.0,-1.0,95.52,95.515,95.465,-1.0,-1.0,-1.0,95.41,95.43,95.34,-1.0,-1.0,95.46,95.5,95.49,-1.0,95.62,95.585,-1.0,-1.0,-1.0,95.65,-1.0,-1.0,95.71,-1.0,95.67,-1.0,-1.0,95.65,95.6,95.58,95.55,95.56,95.54,95.47,95.46,95.45,95.47,95.43,95.41,95.37,-1.0,-1.0,95.28,95.315,95.34,95.33,95.35,95.4,95.4,95.43,95.375,95.33,-1.0,95.29,95.265,95.19,95.15,-1.0,-1.0,-1.0,-1.0,95.21,95.19,95.19,95.2,95.19,-1.0,95.19,95.16,95.16,-1.0,95.1,95.09,-1.0,-1.0,-1.0,95.04,-1.0,95.03,95.03,95.04,95.025,95.08,95.08,95.06,95.07,95.1,95.12,95.13,95.13,95.07,95.06,95.07,95.06,-1.0,95.04,95.11,95.12,95.09,95.165,95.165,-1.0,95.22,-1.0,95.26,-1.0,95.155,-1.0,95.19,95.235,95.18,95.22,95.24,95.245,95.18,95.21,95.14,95.075,-1.0,95.21,95.21,95.275,95.3,95.39,95.46,95.57,95.55,-1.0,-1.0,95.57,-1.0,-1.0,-1.0,95.61,95.625,95.58,95.605,95.65,95.67,95.645,95.65,95.66,-1.0,95.645,95.68,95.715,95.79,95.79,95.755,95.735,95.78,95.79,95.76,95.8,95.91,95.91,95.925,95.905,95.83,95.81,95.8,95.81,95.93,95.96,95.855,95.83,95.85,95.92,95.92,95.99,96.0,95.94,95.93,95.95,95.93,95.99,95.995,95.93,95.96,95.98,95.89,95.85,95.865,95.875,95.875,95.88,95.93,95.91,95.94,95.98,95.97,95.95,95.99,96.09
2019-05-01,95.905,-1.0,-1.0,96.08,95.82,95.815,95.88,-1.0,95.73,95.715,95.47,-1.0,95.23,95.33,95.565,95.785,95.835,95.825,95.79,95.78,95.64,95.76,-1.0,95.49,95.34,95.425,95.3,95.25,95.17,95.17,95.02,95.05,94.91,94.95,94.86,94.87,-1.0,95.24,95.26,95.23,-1.0,95.265,95.27,95.09,95.115,95.14,95.07,95.22,95.22,95.225,-1.0,95.33,95.265,95.325,95.31,95.27,95.31,95.22,95.0,95.02,95.0,94.76,94.73,94.74,94.78,94.835,94.855,94.895,-1.0,94.97,94.915,94.68,94.79,94.795,94.855,94.87,94.77,94.83,94.695,-1.0,-1.0,94.54,-1.0,94.54,94.485,94.38,-1.0,94.41,94.355,94.23,94.19,94.21,94.11,94.1,94.115,94.2,94.21,94.14,94.12,94.08,94.16,94.165,94.14,94.11,94.065,-1.0,93.955,93.94,94.02,-1.0,94.015,93.95,-1.0,-1.0,93.965,94.05,94.0,93.95,94.02,94.02,93.99,94.01,93.93,93.97,-1.0,93.98,93.97,93.96,94.01,94.02,94.02,94.24,94.24,94.22,94.23,94.19,94.17,94.17,94.135,94.07,94.07,94.09,94.19,94.05,94.08,94.06,94.07,94.105,94.07,94.085,94.03,94.015,93.94,94.015,94.04,94.04,94.02,93.96,93.91,93.85,93.78,93.74,93.77,93.7,93.58,93.57,93.6,-1.0,93.565,93.5,93.44,93.535,93.57,93.6,93.6,93.61,-1.0,93.67,93.645,93.63,-1.0,-1.0,93.48,93.45,93.45,93.5,93.48,-1.0,93.39,93.39,93.41,93.33,93.345,93.37,93.35,93.33,93.31,93.29,93.24,93.2,93.22,93.17,93.145,93.125,93.19,93.29,93.4,93.37,93.38,-1.0,93.56,93.47,93.42,93.35,93.47,-1.0,93.37,93.34,93.45,93.34,-1.0,93.46,93.45,93.35,-1.0,-1.0,-1.0,-1.0,93.41,93.465,93.44,93.4,93.35,-1.0,-1.0,-1.0,93.36,93.33,-1.0,93.33,93.31,93.21,93.3,93.28,93.36,-1.0,93.4,93.47,93.51,93.54,93.545,-1.0,93.58,93.6,93.51,93.4,93.475,93.5,93.48,-1.0,-1.0,93.45,93.55,93.55,-1.0,-1.0,93.54,93.5,-1.0,93.45,93.5,93.44,93.365,93.445,93.46,93.64,-1.0,93.83,93.78,93.66,93.6,93.54,93.61,-1.0,93.63,93.59,93.745,93.77,93.85,93.77,93.73,93.74,93.81,93.83,93.86,93.85,93.86,93.76,93.8,93.7,93.55,93.55,93.59,93.51,93.405,93.44,93.435,93.4,93.46,-1.0,93.17,93.2,-1.0,93.16,93.165,93.1,93.11,-1.0,-1.0,93.13,93.145,93.23,93.22,93.33,93.44,93.48,93.53,93.55,93.47,93.47,93.57,93.59,-1.0,93.38,-1.0,-1.0,93.355,-1.0,93.35,-1.0,93.31,93.3,93.28,93.29,93.26,93.315,93.27,93.335,93.31,93.3,-1.0,93.23,93.185,93.1,93.08,-1.0,93.0,93.0,93.0,92.99,92.98,92.925,92.89,92.87,92.85,92.765,92.815,92.71,92.71,92.715,92.635,92.725,92.755,92.75,92.76,92.65,92.63,92.52,92.555,92.55,92.6,92.585,92.56,92.6,92.6,92.5,92.4,92.345,92.265,92.22
2019-05-02,91.12,-1.0,91.27,91.11,91.585,91.71,91.83,91.77,91.85,92.15,92.065,-1.0,91.645,91.66,92.0,91.87,91.76,-1.0,91.96,91.93,91.925,91.93,91.92,-1.0,91.66,91.7,91.715,91.495,91.58,91.59,91.63,91.79,91.79,91.67,91.66,91.675,91.64,91.53,91.525,91.395,91.3,91.32,91.28,-1.0,91.52,91.465,-1.0,-1.0,91.385,91.31,91.32,91.6,91.58,91.65,91.65,91.65,91.64,91.64,91.48,91.425,91.35,91.38,91.41,91.45,-1.0,-1.0,91.29,91.16,-1.0,-1.0,-1.0,90.96,-1.0,-1.0,90.83,90.83,90.805,90.75,90.67,90.76,-1.0,-1.0,90.73,90.74,90.635,90.86,90.73,90.67,90.61,-1.0,90.53,90.47,90.48,90.475,90.57,90.535,90.52,90.49,90.41,90.51,90.515,90.45,90.535,90.39,90.455,90.42,90.335,90.29,90.19,90.13,90.0,89.86,89.96,89.89,-1.0,-1.0,89.92,90.025,89.88,89.81,89.955,89.94,90.04,89.97,-1.0,90.005,90.0,-1.0,-1.0,89.88,89.82,-1.0,89.77,-1.0,89.72,-1.0,-1.0,-1.0,-1.0,89.955,89.85,-1.0,89.57,89.63,89.53,89.48,89.465,-1.0,89.4,89.47,-1.0,-1.0,-1.0,89.64,89.61,89.82,89.875,89.81,-1.0,89.84,-1.0,89.81,89.83,89.93,89.83,89.66,-1.0,89.64,89.6,89.57,89.5,-1.0,89.575,89.66,89.615,89.53,89.81,89.755,89.755,89.73,89.85,90.06,90.05,89.92,89.865,89.84,89.855,89.82,89.865,89.87,89.8,89.775,-1.0,-1.0,89.82,89.84,89.8,-1.0,89.77,89.85,89.8,89.71,89.57,89.6,89.665,89.66,89.68,89.6,-1.0,89.73,89.73,-1.0,-1.0,-1.0,89.43,89.5,-1.0,89.41,89.475,89.465,89.57,89.57,89.6,-1.0,89.63,-1.0,89.77,89.76,89.765,89.81,89.875,-1.0,89.99,90.01,89.97,89.99,-1.0,89.96,-1.0,-1.0,89.95,89.93,89.915,89.87,89.85,-1.0,89.83,89.83,89.84,89.855,89.8,89.82,89.755,89.79,89.825,-1.0,89.845,89.8,89.75,-1.0,89.75,89.75,-1.0,89.73,89.7,-1.0,89.74,-1.0,89.755,-1.0,-1.0,89.63,89.58,89.56,89.55,89.61,89.64,89.55,89.605,89.7,89.685,89.59,-1.0,-1.0,89.75,89.61,-1.0,89.75,89.75,-1.0,89.67,89.65,89.755,89.88,-1.0,89.96,89.935,89.725,89.55,89.64,89.66,-1.0,89.66,89.63,89.7,89.63,89.59,-1.0,89.79,89.695,89.75,89.73,89.8,89.81,89.855,89.77,-1.0,89.67,89.665,-1.0,89.575,89.77,89.8,89.795,89.715,89.75,-1.0,89.79,89.77,89.74,89.79,-1.0,89.78,-1.0,89.78,89.8,89.76,-1.0,89.7,89.63,89.64,89.67,89.64,89.67,89.6,89.555,-1.0,89.725,-1.0,89.79,89.74,89.73,-1.0,-1.0,89.8,-1.0,89.81,-1.0,89.76,89.83,89.83,-1.0,-1.0,89.63,89.645,89.62,89.66,89.67,89.7,89.75,89.66,89.6,89.66,89.76,89.79,89.755,89.715,89.8,89.815,89.775,89.76,89.715,89.66,89.625,89.66,89.65,89.51,89.555,89.5,89.45
2019-05-03,-1.0,92.27,92.245,92.06,92.17,92.245,91.925,91.52,91.415,91.18,-1.0,91.14,91.21,91.22,91.2,91.3,90.93,90.19,90.435,90.645,90.775,90.82,91.01,90.925,-1.0,91.005,91.15,-1.0,90.935,91.14,91.31,91.055,91.28,91.56,91.67,91.75,91.885,91.895,-1.0,91.78,91.755,91.91,91.895,91.925,91.87,91.88,92.08,92.135,92.11,92.45,92.24,92.31,92.43,92.4,92.55,92.665,92.715,92.955,93.115,93.05,92.94,92.885,92.875,92.9,93.0,93.04,92.93,92.92,93.065,93.03,93.06,93.15,93.015,93.04,93.04,93.02,93.03,93.12,93.05,93.015,93.02,93.0,92.96,93.01,92.99,93.04,93.02,92.98,92.995,93.015,92.98,93.02,93.325,93.41,93.245,-1.0,93.4,93.34,93.35,93.48,93.59,93.4,93.24,93.25,93.13,93.05,92.97,93.0,92.67,92.72,-1.0,-1.0,92.66,92.66,92.73,92.88,-1.0,-1.0,-1.0,92.76,92.75,-1.0,92.79,-1.0,92.9,92.72,-1.0,-1.0,-1.0,92.78,92.78,92.75,92.83,92.83,92.81,92.75,92.76,92.725,-1.0,92.65,92.65,92.73,92.78,92.77,92.66,92.72,92.71,92.63,92.65,92.625,-1.0,92.715,92.8,92.72,-1.0,92.83,92.91,92.93,92.92,-1.0,92.91,92.9,92.9,-1.0,92.74,92.77,-1.0,92.8,92.76,92.75,-1.0,-1.0,92.78,-1.0,92.785,92.78,-1.0,92.785,92.75,92.76,92.8,-1.0,92.885,92.84,92.75,92.77,92.79,92.77,-1.0,92.825,92.92,92.96,92.995,93.03,93.03,93.03,92.86,-1.0,-1.0,93.02,93.0,93.01,92.955,-1.0,92.85,-1.0,92.745,92.75,-1.0,92.76,-1.0,92.78,-1.0,92.83,92.73,-1.0,-1.0,-1.0,92.73,92.715,92.68,92.69,92.7,92.68,92.665,92.7,92.66,92.55,92.68,92.65,-1.0,92.76,92.7,-1.0,92.66,92.735,92.72,92.63,92.62,92.63,92.68,92.61,92.57,92.53,92.3,92.28,92.15,-1.0,92.09,-1.0,92.12,-1.0,-1.0,92.21,92.02,-1.0,-1.0,92.12,92.12,92.18,92.24,92.205,92.12,92.12,92.105,91.84,91.84,91.78,91.86,91.87,-1.0,91.755,-1.0,91.69,91.7,-1.0,91.84,91.83,91.84,91.95,-1.0,-1.0,-1.0,-1.0,92.05,92.12,-1.0,92.15,92.165,-1.0,92.165,92.23,92.22,-1.0,-1.0,91.945,91.96,91.94,-1.0,-1.0,91.9,-1.0,-1.0,91.8,-1.0,-1.0,91.77,91.72,91.68,91.65,91.64,91.69,-1.0,91.735,91.715,91.78,91.79,91.78,91.71,91.725,91.735,-1.0,-1.0,92.04,92.125,92.17,92.15,-1.0,91.94,-1.0,91.82,91.85,-1.0,-1.0,91.79,-1.0,91.78,91.88,-1.0,-1.0,-1.0,-1.0,-1.0,91.76,91.76,-1.0,-1.0,91.72,91.74,91.69,91.72,91.69,91.68,91.75,91.69,91.76,91.76,-1.0,91.835,91.66,-1.0,91.65,91.64,91.57,91.65,91.64,91.58,91.53,91.65,91.58,91.695,91.65,91.63,91.47,91.48,91.49,91.42,91.42,91.23,91.25,91.34,91.36,91.41,91.28,91.47,91.51,91.55,91.55,91.56,91.47
2019-05-06,89.65,90.19,-1.0,90.62,-1.0,90.525,90.29,90.1,90.03,-1.0,90.0,-1.0,-1.0,-1.0,90.0,89.97,90.01,90.185,90.085,90.14,89.935,90.05,89.97,90.285,90.42,90.705,90.62,90.7,90.855,90.685,90.9,90.755,-1.0,90.59,90.605,90.755,90.855,-1.0,91.205,91.34,-1.0,91.27,91.385,91.4,91.6,91.55,91.575,91.39,91.525,91.54,91.44,91.44,91.425,91.27,91.22,91.215,91.23,91.265,-1.0,91.115,90.9,90.86,-1.0,-1.0,90.735,-1.0,90.725,-1.0,90.92,90.9,91.0,91.03,91.015,90.95,90.86,-1.0,90.82,90.76,90.64,90.585,90.51,-1.0,90.675,90.68,90.625,90.7,90.78,90.81,-1.0,-1.0,-1.0,90.94,-1.0,90.82,90.72,90.705,90.57,90.57,90.5,90.48,90.55,90.52,90.49,-1.0,90.72,-1.0,90.905,91.09,91.01,91.05,-1.0,91.015,91.01,90.92,-1.0,-1.0,-1.0,90.96,-1.0,91.0,91.06,-1.0,90.91,90.72,90.72,90.78,90.86,90.975,-1.0,-1.0,91.11,91.12,91.11,91.01,90.965,-1.0,91.215,91.11,-1.0,-1.0,90.96,90.85,90.83,90.94,90.89,90.78,90.76,90.61,90.595,90.525,-1.0,90.53,-1.0,-1.0,90.56,-1.0,90.55,90.6,90.65,90.68,-1.0,90.63,-1.0,90.69,90.69,-1.0,-1.0,90.825,90.8,-1.0,-1.0,90.99,90.96,-1.0,90.98,90.985,-1.0,91.005,90.925,90.9,90.86,90.72,90.62,90.575,90.57,90.625,90.625,-1.0,90.55,90.66,-1.0,-1.0,-1.0,90.71,90.71,90.7,-1.0,90.695,-1.0,-1.0,90.62,90.635,90.655,90.75,90.745,90.745,90.735,90.77,90.805,90.77,90.67,90.675,90.67,90.69,90.695,90.75,90.79,90.8,90.775,90.605,90.655,-1.0,-1.0,90.685,90.65,-1.0,90.815,-1.0,90.85,90.805,90.89,-1.0,90.845,90.86,-1.0,-1.0,90.89,90.915,90.905,90.915,90.91,-1.0,90.88,-1.0,-1.0,90.92,-1.0,90.915,90.895,90.9,-1.0,90.91,-1.0,-1.0,-1.0,-1.0,91.26,91.24,91.27,-1.0,91.38,-1.0,-1.0,91.36,-1.0,91.395,91.33,-1.0,91.245,91.26,91.21,91.17,91.17,91.21,-1.0,91.2,91.235,91.225,91.26,91.31,91.305,91.175,91.31,91.29,91.23,91.2,91.26,91.14,-1.0,-1.0,-1.0,91.155,91.14,-1.0,91.15,91.14,91.2,91.23,-1.0,91.23,91.28,91.31,91.28,91.265,91.21,91.2,91.21,91.205,-1.0,-1.0,91.34,-1.0,91.395,91.41,91.41,91.43,91.43,91.44,91.57,91.55,-1.0,91.68,91.61,91.62,91.6,-1.0,91.63,91.66,91.655,91.6,-1.0,91.67,-1.0,91.79,91.8,91.83,91.81,91.81,91.805,91.71,91.65,91.63,91.645,91.595,91.615,91.5,91.53,91.61,91.64,91.62,91.625,91.695,91.655,91.67,-1.0,91.84,91.84,91.785,91.82,91.815,91.75,91.64,91.63,91.53,91.54,91.58,91.565,91.52,91.545,91.44,91.42,91.335,91.25,91.27,91.27,91.25,91.22,91.19,91.23,91.24,91.37,91.385,91.52,91.51,91.35,91.33,91.35,91.38,91.38,91.435
2019-05-07,89.94,90.0,89.93,89.895,89.98,89.89,89.98,90.47,90.65,90.705,90.29,90.655,90.665,90.645,90.67,-1.0,90.51,90.29,-1.0,-1.0,90.0,89.83,89.905,-1.0,90.46,90.53,90.54,-1.0,-1.0,90.61,90.74,90.55,90.63,90.7,90.8,90.845,90.73,90.87,90.835,90.94,90.78,90.9,-1.0,91.15,91.14,91.13,90.98,90.94,-1.0,91.06,91.155,91.27,91.24,91.24,-1.0,91.2,91.23,91.32,91.25,91.38,91.28,91.25,91.12,-1.0,90.75,90.57,-1.0,90.575,90.7,90.71,90.89,90.915,91.005,91.04,90.91,90.955,90.97,90.805,90.775,90.77,90.625,90.555,90.59,90.67,90.61,90.595,90.585,90.6,90.7,90.56,90.81,90.79,90.57,90.52,90.47,90.53,90.495,90.51,90.505,90.625,-1.0,90.695,90.735,90.585,90.71,-1.0,90.72,90.75,-1.0,90.73,90.63,-1.0,-1.0,90.65,90.665,90.65,90.665,-1.0,90.84,90.94,-1.0,91.07,91.14,91.04,-1.0,-1.0,90.79,90.73,90.725,90.775,90.955,90.8,-1.0,-1.0,90.865,-1.0,90.98,-1.0,-1.0,90.91,-1.0,-1.0,90.7,90.765,90.76,90.75,-1.0,90.59,90.51,90.555,90.58,-1.0,90.5,90.495,90.635,90.63,90.75,-1.0,-1.0,-1.0,90.8,-1.0,-1.0,-1.0,90.76,90.71,90.81,-1.0,-1.0,-1.0,-1.0,-1.0,90.75,-1.0,-1.0,-1.0,90.72,-1.0,-1.0,-1.0,-1.0,-1.0,90.95,90.89,-1.0,90.93,90.91,90.92,-1.0,90.93,90.885,-1.0,90.94,90.945,90.89,90.925,-1.0,-1.0,-1.0,90.92,90.88,90.96,-1.0,90.93,-1.0,90.78,-1.0,90.61,90.73,90.74,90.73,90.71,90.725,90.67,90.65,90.545,90.6,90.595,90.465,90.45,-1.0,90.42,90.485,90.53,-1.0,-1.0,-1.0,90.575,-1.0,-1.0,90.365,-1.0,90.395,-1.0,90.46,90.44,-1.0,90.39,90.44,-1.0,90.31,90.32,90.34,90.4,90.55,90.45,90.46,90.28,90.38,-1.0,90.34,90.26,90.245,90.28,-1.0,-1.0,90.295,-1.0,90.395,90.49,90.52,-1.0,90.58,90.71,90.59,90.495,-1.0,-1.0,90.55,-1.0,90.69,-1.0,-1.0,-1.0,90.6,-1.0,90.75,90.81,-1.0,90.785,90.765,-1.0,-1.0,-1.0,90.77,-1.0,90.73,90.69,90.68,-1.0,-1.0,90.76,-1.0,90.72,90.64,90.69,-1.0,90.62,90.61,90.57,90.62,90.65,90.435,90.5,90.515,90.62,90.65,90.73,90.695,-1.0,-1.0,90.77,90.73,90.65,90.6,-1.0,90.67,90.67,-1.0,-1.0,90.65,90.715,90.71,90.765,90.805,91.02,90.995,91.05,91.05,91.08,91.09,-1.0,91.04,90.93,90.95,90.94,90.915,90.97,90.97,-1.0,-1.0,91.21,91.28,91.31,91.285,91.32,91.23,91.26,91.245,91.155,91.19,91.19,91.18,91.15,91.03,91.085,91.07,91.05,91.05,91.05,91.08,91.07,91.09,91.095,91.07,91.025,91.07,91.06,-1.0,91.1,91.135,-1.0,91.315,91.34,91.42,91.5,91.47,91.44,91.51,91.47,91.42,-1.0,91.59,91.66,91.79,91.86,91.8,91.74,91.76,91.77
2019-05-08,91.62,-1.0,92.235,92.03,-1.0,92.445,92.61,92.88,92.82,92.68,-1.0,92.835,92.85,92.695,-1.0,92.99,93.18,93.3,93.54,93.445,93.3,93.305,93.58,93.67,-1.0,93.29,93.15,93.11,93.08,93.24,93.46,93.44,93.5,93.2,-1.0,-1.0,93.56,-1.0,93.645,93.67,93.64,93.43,-1.0,93.47,-1.0,-1.0,93.465,-1.0,-1.0,93.33,93.455,93.495,93.58,93.645,93.76,93.69,93.68,93.65,-1.0,93.43,93.8,93.73,93.49,93.43,-1.0,93.49,93.45,93.45,-1.0,93.43,93.57,-1.0,93.63,93.63,93.68,-1.0,93.78,-1.0,93.87,93.805,-1.0,-1.0,93.785,-1.0,93.585,93.6,-1.0,93.58,93.64,93.95,94.14,94.125,94.165,94.34,94.35,94.495,94.505,94.655,94.65,94.47,94.425,94.4,94.215,94.45,94.51,94.525,94.51,94.5,94.475,-1.0,-1.0,94.31,94.225,94.18,94.12,-1.0,-1.0,-1.0,93.92,-1.0,94.01,94.01,94.01,93.88,93.95,93.98,93.99,93.87,93.88,-1.0,-1.0,93.78,-1.0,93.78,93.81,93.83,-1.0,93.92,-1.0,-1.0,93.98,-1.0,93.915,-1.0,94.0,-1.0,94.05,-1.0,-1.0,94.02,94.015,-1.0,93.87,-1.0,-1.0,-1.0,-1.0,93.91,-1.0,-1.0,93.78,93.73,93.785,93.765,93.73,93.74,-1.0,93.82,93.825,93.75,93.71,93.735,-1.0,-1.0,-1.0,93.82,93.85,93.895,93.9,93.95,-1.0,-1.0,-1.0,93.7,-1.0,-1.0,93.71,-1.0,93.64,93.58,93.57,93.6,-1.0,-1.0,-1.0,93.57,93.62,93.67,93.76,93.77,-1.0,93.81,93.8,93.71,-1.0,93.69,93.715,93.76,93.785,93.79,93.775,-1.0,-1.0,-1.0,93.81,93.79,93.72,93.8,93.78,93.77,93.795,93.795,-1.0,93.765,93.755,93.765,93.675,93.685,93.665,93.645,-1.0,93.72,-1.0,-1.0,93.83,93.77,93.815,-1.0,-1.0,93.72,-1.0,93.71,93.725,93.79,93.81,93.805,93.755,93.81,-1.0,-1.0,-1.0,-1.0,93.81,93.82,-1.0,93.805,93.855,93.71,93.735,93.79,-1.0,-1.0,93.83,93.825,93.74,93.735,93.78,-1.0,-1.0,-1.0,93.81,-1.0,93.705,93.745,93.755,-1.0,93.695,93.725,93.81,93.82,93.76,93.76,-1.0,93.655,-1.0,93.67,93.7,93.74,93.72,93.665,93.69,93.695,93.77,93.79,93.905,93.945,94.02,94.03,94.04,94.16,94.175,94.14,94.15,-1.0,94.25,94.24,94.21,94.17,-1.0,-1.0,94.29,94.29,94.23,94.22,94.29,94.305,94.18,94.185,-1.0,94.22,-1.0,-1.0,94.18,94.23,94.285,94.285,-1.0,94.155,94.25,94.25,94.26,94.2,94.255,94.25,94.15,94.1,94.19,94.22,94.14,-1.0,-1.0,94.22,94.22,94.32,94.355,94.15,94.135,-1.0,94.26,-1.0,-1.0,-1.0,-1.0,94.31,94.335,94.34,94.385,94.44,94.455,94.39,94.395,94.395,94.365,94.44,94.41,-1.0,94.47,94.46,94.37,94.4,94.42,94.38,94.315,94.305,94.3,94.29,94.265,94.29,94.32,94.29,94.265,94.23,94.24,94.24,94.21,94.155,94.17,94.165,94.17,94.19
2019-05-09,92.67,92.71,92.635,-1.0,-1.0,92.88,-1.0,92.79,-1.0,93.27,93.23,-1.0,93.21,-1.0,-1.0,92.66,92.63,-1.0,-1.0,92.625,92.32,92.31,-1.0,92.35,-1.0,92.335,92.515,92.48,-1.0,92.81,92.82,92.79,92.68,92.72,92.88,-1.0,92.805,92.96,92.92,93.05,92.88,-1.0,-1.0,92.85,92.89,92.87,-1.0,92.705,-1.0,92.64,92.47,92.67,92.675,92.76,92.77,92.765,92.75,-1.0,92.94,93.04,93.135,93.065,93.125,93.12,-1.0,92.955,92.98,92.98,92.75,-1.0,92.8,92.81,93.16,93.22,93.32,93.3,93.295,93.43,-1.0,93.42,93.39,93.49,-1.0,93.425,93.47,93.45,93.4,93.37,93.43,93.39,93.475,93.49,93.49,93.5,93.595,93.54,93.6,93.525,93.6,-1.0,93.755,93.82,93.755,-1.0,93.88,93.79,-1.0,-1.0,-1.0,-1.0,-1.0,93.46,-1.0,-1.0,93.34,93.37,93.33,93.225,93.155,93.155,93.3,93.25,93.4,-1.0,-1.0,-1.0,93.55,93.5,-1.0,93.65,93.77,93.71,93.615,93.68,93.76,93.79,-1.0,93.72,-1.0,-1.0,-1.0,-1.0,93.73,93.72,93.845,-1.0,-1.0,-1.0,93.725,-1.0,93.88,-1.0,-1.0,93.815,93.83,93.85,93.81,93.955,93.965,94.02,93.98,93.95,-1.0,-1.0,-1.0,93.92,-1.0,-1.0,94.14,-1.0,94.05,94.025,94.05,94.08,94.04,94.22,-1.0,94.19,94.32,94.29,94.35,-1.0,94.52,94.54,94.545,-1.0,-1.0,-1.0,94.72,94.785,-1.0,-1.0,94.83,94.65,94.63,94.67,94.73,94.635,94.605,94.61,94.59,94.565,94.67,94.78,94.76,-1.0,94.8,-1.0,94.84,94.85,95.01,-1.0,95.06,95.06,95.03,-1.0,-1.0,94.815,-1.0,-1.0,94.78,94.64,-1.0,94.78,94.785,94.71,-1.0,94.59,-1.0,94.55,94.49,-1.0,94.555,94.59,94.56,-1.0,-1.0,94.57,94.655,94.625,94.67,-1.0,-1.0,-1.0,-1.0,-1.0,94.71,94.635,94.605,-1.0,94.665,94.625,-1.0,-1.0,-1.0,-1.0,94.6,94.565,94.57,94.71,94.74,94.7,-1.0,94.66,94.645,94.665,94.665,94.7,94.72,94.715,94.81,-1.0,94.675,94.63,94.6,-1.0,94.75,94.73,94.67,-1.0,94.81,94.79,94.75,94.8,94.81,94.79,94.77,94.775,-1.0,94.715,94.74,94.79,-1.0,-1.0,94.715,94.675,94.64,94.5,94.485,-1.0,94.46,94.47,94.52,94.545,94.505,94.445,-1.0,94.38,-1.0,94.42,94.44,94.505,94.52,94.515,94.39,94.36,94.35,94.34,94.33,94.29,94.31,94.38,94.355,94.37,94.36,94.38,94.32,94.25,-1.0,94.15,94.22,94.12,-1.0,94.2,94.2,94.18,94.14,94.14,-1.0,93.915,93.885,93.94,93.94,94.03,94.01,-1.0,94.03,94.04,93.99,94.03,94.095,94.105,94.12,94.17,94.18,94.145,94.16,94.135,94.16,94.23,-1.0,94.31,-1.0,94.345,94.39,94.405,94.32,94.27,-1.0,94.37,94.35,94.3,94.26,-1.0,94.34,94.315,94.35,94.32,94.34,94.33,94.36,94.35,94.36,94.33,94.32,94.37,94.37,94.35,94.37,94.31
2019-05-10,94.205,-1.0,93.91,94.01,94.1,94.015,93.93,94.115,94.14,94.2,94.21,94.16,94.185,93.92,93.95,93.835,93.925,-1.0,94.08,93.84,93.72,93.6,93.685,93.815,93.73,93.79,-1.0,93.81,93.755,93.72,93.68,93.55,93.67,-1.0,93.57,93.44,93.4,93.395,-1.0,93.48,-1.0,93.455,93.48,93.39,93.35,93.305,93.01,92.98,92.99,-1.0,92.94,92.92,92.905,92.89,92.825,93.04,-1.0,-1.0,93.08,93.09,93.135,93.045,93.095,93.02,-1.0,93.03,-1.0,92.885,92.87,92.72,92.855,92.65,92.78,92.74,92.8,92.895,93.1,93.16,93.13,93.03,93.12,93.19,93.16,-1.0,93.175,93.15,93.17,93.2,93.28,93.23,93.24,-1.0,93.155,-1.0,93.095,-1.0,93.23,93.29,-1.0,93.13,93.1,93.11,93.09,93.165,93.24,93.17,-1.0,93.345,93.35,93.405,93.51,-1.0,93.66,93.585,93.59,93.59,93.53,93.65,-1.0,93.58,93.56,93.43,-1.0,93.485,-1.0,93.45,93.54,-1.0,93.66,-1.0,93.61,93.63,93.435,93.305,93.4,93.48,93.4,-1.0,93.43,93.34,93.3,-1.0,-1.0,-1.0,93.455,93.69,93.57,93.575,93.66,-1.0,93.76,93.765,93.695,93.725,93.67,93.68,93.585,93.53,-1.0,-1.0,93.54,93.62,93.74,-1.0,93.8,93.765,-1.0,93.86,93.86,93.86,93.8,-1.0,93.86,-1.0,93.84,-1.0,93.955,93.98,-1.0,-1.0,-1.0,94.115,94.2,94.32,-1.0,-1.0,-1.0,-1.0,-1.0,-1.0,-1.0,94.165,94.06,-1.0,-1.0,94.18,-1.0,94.23,-1.0,94.065,-1.0,-1.0,-1.0,-1.0,-1.0,94.34,94.32,94.265,-1.0,-1.0,94.28,94.39,-1.0,-1.0,-1.0,94.405,94.35,-1.0,-1.0,-1.0,-1.0,94.38,-1.0,-1.0,-1.0,-1.0,94.27,94.26,94.32,-1.0,-1.0,-1.0,94.52,94.39,-1.0,94.47,-1.0,-1.0,94.51,94.5,-1.0,94.52,94.58,94.575,-1.0,-1.0,94.545,-1.0,94.475,-1.0,94.57,-1.0,94.525,94.47,-1.0,-1.0,94.58,-1.0,94.64,-1.0,94.595,94.62,94.58,-1.0,94.62,-1.0,94.51,-1.0,-1.0,94.575,94.58,94.56,94.625,94.625,-1.0,-1.0,94.62,94.7,94.715,94.675,-1.0,94.725,94.68,94.67,94.535,94.51,94.48,94.46,94.35,94.37,94.31,94.285,94.205,94.13,94.11,94.09,-1.0,94.22,94.19,-1.0,94.21,94.215,94.215,-1.0,-1.0,94.275,94.27,94.295,94.39,-1.0,94.425,94.425,94.405,-1.0,94.375,94.365,94.375,94.41,-1.0,94.4,94.45,94.47,94.57,-1.0,94.5,94.55,-1.0,94.61,94.58,94.7,94.59,94.72,94.77,94.675,94.78,94.795,94.8,94.72,94.725,94.78,94.765,-1.0,-1.0,-1.0,94.85,-1.0,94.885,-1.0,95.02,-1.0,95.11,95.06,95.12,-1.0,95.13,95.145,95.18,-1.0,-1.0,95.21,95.17,95.11,95.025,94.97,-1.0,94.81,-1.0,-1.0,94.74,94.71,94.7,94.66,94.67,94.7,94.64,94.69,94.76,94.77,94.72,94.665,94.71,94.75,94.72,94.79,94.805,94.86,94.815,94.9,94.92,95.05
2019-05-13,-1.0,-1.0,-1.0,-1.0,94.35,94.56,94.69,94.52,94.63,-1.0,94.54,-1.0,94.76,-1.0,-1.0,-1.0,-1.0,-1.0,94.88,94.81,-1.0,94.555,94.49,94.455,-1.0,-1.0,-1.0,94.295,94.31,94.34,-1.0,-1.0,94.14,94.07,94.195,-1.0,93.975,93.99,94.025,-1.0,93.76,93.66,93.75,93.745,93.72,93.79,93.91,94.16,94.3,94.17,94.07,93.92,93.9,-1.0,94.09,94.17,-1.0,94.12,94.23,94.25,94.22,94.455,-1.0,94.31,94.335,94.52,94.605,94.69,94.615,94.86,94.915,95.08,95.215,95.275,95.235,95.22,95.25,95.18,95.085,94.82,-1.0,-1.0,-1.0,94.8,-1.0,94.75,-1.0,-1.0,-1.0,94.81,94.96,94.94,94.69,94.61,-1.0,94.49,-1.0,94.665,94.615,94.575,94.51,-1.0,94.515,-1.0,94.4,-1.0,94.235,94.02,-1.0,94.06,94.18,94.18,94.115,-1.0,94.24,94.09,94.01,93.895,93.885,93.96,-1.0,93.99,94.0,-1.0,94.02,-1.0,-1.0,93.9,-1.0,-1.0,-1.0,93.68,93.8,93.89,93.9,93.94,-1.0,93.87,93.84,93.84,93.89,93.68,-1.0,-1.0,-1.0,93.59,93.59,93.81,-1.0,-1.0,-1.0,-1.0,-1.0,93.85,93.8,93.8,93.82,93.81,93.79,93.68,93.78,93.795,93.65,93.81,-1.0,-1.0,93.63,-1.0,-1.0,93.815,93.805,-1.0,93.83,-1.0,93.82,93.85,-1.0,-1.0,93.82,93.85,93.71,93.62,93.69,93.92,93.695,93.85,93.82,93.85,94.0,94.015,94.015,93.98,93.84,93.805,93.9,93.9,93.9,-1.0,-1.0,93.97,93.975,-1.0,94.085,-1.0,94.035,-1.0,93.775,93.895,-1.0,93.9,93.91,93.75,93.705,93.78,93.83,93.82,93.78,93.755,93.635,93.625,93.59,-1.0,93.7,93.77,-1.0,93.75,93.68,93.86,-1.0,-1.0,93.72,-1.0,-1.0,-1.0,93.78,93.86,93.79,-1.0,93.715,-1.0,93.8,93.91,-1.0,93.82,-1.0,-1.0,-1.0,-1.0,93.79,93.94,93.85,93.8,93.805,93.76,93.71,93.62,93.62,93.62,93.68,93.71,-1.0,-1.0,-1.0,-1.0,93.61,-1.0,93.645,93.585,93.61,93.66,-1.0,93.7,93.7,93.765,93.81,93.825,93.85,-1.0,-1.0,93.87,93.86,-1.0,93.66,93.685,93.605,93.64,93.57,93.61,93.72,93.69,93.75,-1.0,93.635,-1.0,93.57,93.96,93.87,-1.0,93.87,93.955,-1.0,-1.0,-1.0,-1.0,93.735,93.7,93.63,-1.0,-1.0,93.76,93.625,-1.0,-1.0,-1.0,-1.0,-1.0,93.68,-1.0,-1.0,-1.0,-1.0,-1.0,-1.0,-1.0,-1.0,-1.0,-1.0,93.9,-1.0,-1.0,93.91,93.87,-1.0,93.74,-1.0,93.67,93.7,-1.0,93.77,-1.0,93.65,93.65,93.62,93.57,93.495,93.47,-1.0,-1.0,93.41,93.39,93.44,-1.0,-1.0,-1.0,93.37,93.37,-1.0,93.25,-1.0,93.31,93.355,93.34,93.33,-1.0,-1.0,93.42,93.34,93.36,93.33,93.38,93.42,93.39,-1.0,-1.0,93.365,93.44,93.38,93.45,93.48,-1.0,-1.0,93.45,93.47,93.42,93.46,93.57,93.52,93.58,93.62,93.6
2019-05-14,94.1,94.1,-1.0,-1.0,94.7,94.56,94.55,-1.0,-1.0,-1.0,94.375,94.405,-1.0,94.495,94.44,-1.0,94.58,94.51,94.62,94.5,-1.0,94.17,94.09,-1.0,94.13,94.14,-1.0,94.37,-1.0,94.46,94.51,94.535,94.755,-1.0,-1.0,94.56,-1.0,94.71,94.72,94.72,-1.0,94.615,94.705,94.54,94.45,94.6,94.635,94.65,94.655,94.83,94.93,94.895,94.93,94.9,94.9,94.84,94.885,94.92,95.055,95.065,-1.0,95.02,95.12,95.2,-1.0,95.09,95.06,95.05,-1.0,-1.0,-1.0,95.085,95.105,95.095,-1.0,-1.0,95.09,95.05,-1.0,95.05,94.97,-1.0,94.89,-1.0,-1.0,94.71,-1.0,-1.0,94.57,94.6,94.64,94.655,-1.0,-1.0,94.555,94.7,94.85,-1.0,-1.0,94.74,94.72,94.71,94.79,-1.0,94.74,-1.0,94.79,94.84,94.95,-1.0,95.01,94.975,94.79,94.78,94.97,94.94,94.885,-1.0,94.81,-1.0,94.795,94.87,-1.0,-1.0,94.86,94.99,95.03,94.95,94.96,94.85,94.91,94.93,94.97,94.96,-1.0,94.85,94.905,94.91,94.98,-1.0,94.92,95.01,95.05,95.065,-1.0,95.18,95.3,-1.0,95.125,-1.0,95.1,-1.0,-1.0,-1.0,95.245,95.235,-1.0,95.2,95.15,-1.0,95.12,-1.0,-1.0,-1.0,95.13,-1.0,95.05,-1.0,-1.0,-1.0,94.91,94.94,94.9,94.885,94.82,-1.0,94.82,94.85,-1.0,94.81,94.85,-1.0,94.865,-1.0,94.95,-1.0,94.94,-1.0,-1.0,95.03,95.03,-1.0,-1.0,95.075,-1.0,-1.0,-1.0,95.01,-1.0,-1.0,-1.0,95.08,-1.0,-1.0,95.19,95.14,95.075,95.14,95.06,95.055,95.13,-1.0,-1.0,-1.0,-1.0,95.01,-1.0,-1.0,-1.0,-1.0,95.14,95.15,95.21,95.25,95.235,95.27,95.23,-1.0,-1.0,95.195,95.16,-1.0,95.12,-1.0,95.18,-1.0,-1.0,-1.0,95.17,-1.0,-1.0,95.17,95.17,95.13,-1.0,95.13,95.16,95.145,95.15,95.04,-1.0,-1.0,94.92,-1.0,-1.0,-1.0,-1.0,-1.0,94.89,-1.0,94.945,94.93,94.89,-1.0,-1.0,-1.0,94.995,94.97,94.98,-1.0,94.965,-1.0,94.93,-1.0,-1.0,-1.0,-1.0,94.74,94.72,94.76,94.79,94.82,94.82,-1.0,-1.0,94.815,-1.0,94.84,94.86,94.805,94.77,94.75,94.74,94.76,94.77,94.8,94.77,94.69,-1.0,-1.0,94.66,94.625,94.61,94.63,94.64,-1.0,-1.0,94.59,94.59,94.61,-1.0,94.595,-1.0,-1.0,94.6,-1.0,94.48,-1.0,94.42,94.395,94.34,94.31,94.28,94.33,94.28,94.325,94.34,94.365,94.355,94.36,94.36,94.4,94.35,94.45,94.49,94.43,94.42,-1.0,94.43,94.53,94.54,94.465,-1.0,-1.0,94.35,94.38,-1.0,94.3,94.355,94.375,94.4,94.34,-1.0,-1.0,-1.0,-1.0,94.4,94.44,94.43,-1.0,-1.0,94.335,-1.0,94.285,94.225,94.245,-1.0,94.135,94.18,-1.0,94.195,94.15,94.175,94.255,94.26,94.24,94.21,94.2,-1.0,94.28,94.34,94.29,94.265,94.23,94.3,94.42,94.31,94.3,94.3,94.325
2019-05-15,-1.0,-1.0,-1.0,93.185,93.63,-1.0,-1.0,93.845,93.7,-1.0,93.905,93.705,-1.0,-1.0,93.685,-1.0,-1.0,-1.0,-1.0,-1.0,93.82,93.71,-1.0,93.7,93.84,-1.0,-1.0,93.77,93.495,93.575,93.625,-1.0,93.455,93.41,93.535,93.395,93.325,93.345,93.45,93.3,93.49,93.435,93.39,93.66,93.83,93.83,93.63,93.62,93.625,-1.0,-1.0,93.59,93.61,93.555,-1.0,93.6,93.715,-1.0,-1.0,93.675,93.68,93.665,93.76,-1.0,-1.0,93.69,-1.0,93.65,93.7,93.78,93.88,93.825,93.735,93.83,93.89,94.045,-1.0,94.04,93.92,-1.0,-1.0,94.085,-1.0,94.14,94.045,-1.0,93.975,-1.0,-1.0,93.905,93.835,93.805,-1.0,93.69,-1.0,93.7,-1.0,93.78,93.81,93.82,93.89,-1.0,94.0,94.005,-1.0,-1.0,94.13,94.06,-1.0,94.035,94.095,94.04,94.04,94.14,-1.0,94.22,94.335,-1.0,-1.0,-1.0,-1.0,-1.0,94.17,-1.0,94.29,94.23,-1.0,94.125,94.2,-1.0,94.28,-1.0,94.395,-1.0,-1.0,94.27,-1.0,-1.0,94.265,-1.0,94.335,94.31,94.2,-1.0,-1.0,-1.0,94.32,-1.0,94.405,94.41,94.51,-1.0,94.51,-1.0,94.535,94.505,94.51,-1.0,-1.0,94.56,94.535,94.535,-1.0,94.445,94.52,-1.0,-1.0,-1.0,-1.0,94.37,-1.0,-1.0,-1.0,-1.0,94.31,-1.0,94.3,94.32,-1.0,-1.0,-1.0,-1.0,-1.0,-1.0,-1.0,94.455,94.395,-1.0,94.31,94.31,-1.0,-1.0,94.24,-1.0,94.25,-1.0,-1.0,94.15,-1.0,94.25,-1.0,-1.0,-1.0,-1.0,-1.0,94.42,94.395,94.35,-1.0,94.22,94.25,94.275,-1.0,94.33,-1.0,94.355,-1.0,-1.0,94.31,94.32,94.315,-1.0,94.27,94.26,94.235,94.195,94.24,-1.0,94.185,-1.0,94.15,-1.0,-1.0,-1.0,94.09,-1.0,94.13,94.15,-1.0,94.16,-1.0,94.26,94.26,94.29,94.34,-1.0,-1.0,94.38,94.39,-1.0,-1.0,-1.0,94.35,-1.0,-1.0,-1.0,94.21,-1.0,94.2,-1.0,-1.0,-1.0,-1.0,-1.0,-1.0,94.23,-1.0,94.19,94.19,-1.0,94.185,94.175,94.16,-1.0,-1.0,94.215,-1.0,-1.0,-1.0,-1.0,94.275,-1.0,-1.0,-1.0,-1.0,94.13,-1.0,-1.0,94.22,-1.0,-1.0,94.3,-1.0,-1.0,94.395,-1.0,-1.0,-1.0,-1.0,-1.0,-1.0,94.225,94.26,-1.0,-1.0,-1.0,-1.0,-1.0,94.135,94.17,-1.0,-1.0,-1.0,94.27,-1.0,-1.0,-1.0,94.35,-1.0,-1.0,94.39,-1.0,-1.0,-1.0,-1.0,-1.0,94.275,94.28,-1.0,-1.0,94.24,94.275,-1.0,94.17,94.15,-1.0,-1.0,-1.0,-1.0,-1.0,94.12,94.03,-1.0,94.12,-1.0,-1.0,-1.0,94.2,94.29,94.3,-1.0,94.39,-1.0,-1.0,-1.0,-1.0,94.38,-1.0,-1.0,-1.0,94.44,94.455,-1.0,-1.0,94.38,-1.0,-1.0,94.51,-1.0,-1.0,-1.0,-1.0,-1.0,-1.0,-1.0,94.605,94.565,94.55,94.56,-1.0,-1.0,94.59,94.62,94.61,94.57,94.49,94.44,94.48,94.475,94.46
2019-05-16,-1.0,-1.0,-1.0,-1.0,-1.0,95.25,95.49,-1.0,-1.0,-1.0,95.405,-1.0,-1.0,95.66,95.44,95.27,94.9,94.95,95.125,95.25,-1.0,95.215,95.25,-1.0,-1.0,95.7,-1.0,-1.0,-1.0,-1.0,95.6,95.55,95.51,95.5,-1.0,-1.0,95.445,95.615,95.585,95.57,-1.0,95.425,95.335,-1.0,-1.0,-1.0,95.405,95.32,-1.0,95.36,95.4,-1.0,-1.0,95.475,95.515,-1.0,-1.0,95.4,95.44,-1.0,95.655,95.63,-1.0,95.53,95.575,95.535,95.575,95.59,-1.0,-1.0,-1.0,-1.0,-1.0,-1.0,95.8,-1.0,-1.0,-1.0,-1.0,95.67,95.67,95.535,95.52,-1.0,95.61,95.65,-1.0,-1.0,-1.0,-1.0,95.735,95.89,96.06,96.08,-1.0,-1.0,-1.0,-1.0,-1.0,-1.0,95.85,95.88,-1.0,-1.0,-1.0,95.945,95.98,96.02,96.045,-1.0,-1.0,-1.0,-1.0,-1.0,-1.0,95.99,95.975,-1.0,96.0,-1.0,95.98,-1.0,-1.0,-1.0,-1.0,-1.0,95.93,95.75,-1.0,-1.0,-1.0,-1.0,-1.0,-1.0,95.93,95.98,95.935,95.94,95.955,95.95,-1.0,96.01,95.99,-1.0,-1.0,96.07,96.105,96.04,-1.0,96.21,-1.0,96.19,-1.0,96.12,96.11,-1.0,-1.0,96.15,-1.0,-1.0,-1.0,96.025,-1.0,96.04,-1.0,96.01,95.99,96.04,96.07,96.0,95.96,-1.0,95.92,95.915,95.9,95.92,95.895,95.935,95.89,95.88,95.89,-1.0,95.935,-1.0,95.96,-1.0,-1.0,96.0,95.99,96.0,95.96,-1.0,95.97,-1.0,-1.0,-1.0,-1.0,-1.0,-1.0,-1.0,-1.0,-1.0,-1.0,95.885,-1.0,-1.0,-1.0,-1.0,-1.0,95.94,-1.0,95.855,-1.0,95.7,95.73,95.705,95.7,-1.0,95.83,-1.0,-1.0,95.815,95.83,95.84,-1.0,95.785,95.78,-1.0,-1.0,95.805,95.78,95.76,95.79,-1.0,-1.0,95.74,-1.0,-1.0,-1.0,-1.0,95.755,95.79,-1.0,-1.0,-1.0,95.745,-1.0,-1.0,-1.0,95.71,-1.0,95.64,95.62,95.6,95.62,-1.0,95.675,95.56,-1.0,95.49,95.5,95.49,-1.0,95.455,95.46,95.465,-1.0,-1.0,95.6,95.66,95.64,-1.0,95.71,-1.0,-1.0,-1.0,-1.0,-1.0,-1.0,95.64,-1.0,95.6,95.59,95.595,95.63,95.655,-1.0,-1.0,-1.0,95.73,-1.0,95.67,-1.0,-1.0,95.81,95.78,95.785,-1.0,95.72,-1.0,-1.0,95.7,95.68,-1.0,-1.0,95.64,-1.0,95.73,-1.0,95.825,95.83,95.845,95.815,95.85,95.905,95.92,95.915,95.915,95.825,-1.0,95.82,95.81,95.77,-1.0,95.64,95.62,95.66,95.64,95.59,95.62,95.62,-1.0,-1.0,-1.0,-1.0,95.745,95.725,95.58,95.58,95.61,95.53,95.545,95.525,95.47,95.45,95.455,-1.0,95.45,-1.0,95.395,95.42,-1.0,-1.0,95.52,-1.0,95.56,95.57,95.63,-1.0,95.6,95.55,95.565,95.5,95.445,95.485,95.51,95.5,-1.0,95.31,95.325,95.23,95.21,95.07,-1.0,95.07,95.1,95.135,95.1,95.1,95.09,95.22,95.24,95.27,95.35,95.37,95.38,95.27,95.245,95.29,95.25
2019-05-17,94.305,-1.0,94.515,94.555,-1.0,94.475,94.545,94.495,94.49,94.375,94.24,94.28,94.335,94.3,94.345,94.33,-1.0,-1.0,94.33,-1.0,-1.0,94.035,-1.0,93.95,-1.0,-1.0,94.185,-1.0,94.16,94.21,94.3,94.25,94.24,-1.0,-1.0,94.07,94.085,94.06,94.045,94.095,94.06,94.06,93.93,93.91,93.78,-1.0,-1.0,93.8,93.915,93.9,-1.0,94.07,-1.0,-1.0,94.18,-1.0,94.055,94.08,94.08,94.06,93.94,93.91,93.92,93.88,93.92,-1.0,-1.0,93.555,93.55,-1.0,-1.0,93.385,-1.0,93.41,93.47,93.47,93.275,93.32,93.37,93.48,93.65,93.64,93.71,93.75,-1.0,93.93,94.09,94.16,-1.0,93.925,93.95,-1.0,93.955,93.96,93.985,94.1,94.075,94.2,94.24,-1.0,-1.0,93.91,93.95,94.0,-1.0,94.0,94.01,-1.0,94.17,94.2,94.25,94.15,-1.0,94.1,-1.0,94.005,-1.0,93.87,93.83,-1.0,93.78,93.7,93.75,93.75,93.8,-1.0,93.83,93.765,93.775,93.76,93.7,93.68,93.66,93.585,-1.0,93.57,93.58,93.6,93.57,93.56,93.55,93.615,-1.0,93.57,93.72,-1.0,-1.0,93.675,93.725,93.76,93.675,93.755,93.775,93.81,93.795,93.75,-1.0,-1.0,93.69,-1.0,93.55,93.51,93.405,93.455,-1.0,-1.0,93.295,-1.0,-1.0,93.395,93.395,93.39,-1.0,93.43,93.42,-1.0,93.32,93.315,93.32,93.25,93.2,93.18,93.09,93.07,93.055,93.1,93.1,93.105,93.135,93.085,93.015,93.1,93.12,93.17,93.09,93.115,93.115,93.08,92.99,93.03,92.985,93.0,93.005,93.01,-1.0,-1.0,92.985,92.98,-1.0,92.87,92.91,92.86,92.91,92.94,-1.0,-1.0,92.9,-1.0,92.97,93.015,-1.0,92.96,-1.0,-1.0,92.93,92.96,93.05,93.045,93.04,93.03,93.035,-1.0,93.05,-1.0,-1.0,93.01,93.08,-1.0,93.085,93.13,-1.0,-1.0,-1.0,93.18,-1.0,93.31,93.32,93.35,93.32,93.33,-1.0,93.275,93.215,93.24,-1.0,93.31,-1.0,93.345,-1.0,-1.0,93.44,-1.0,-1.0,-1.0,-1.0,93.385,93.37,-1.0,-1.0,93.48,-1.0,-1.0,-1.0,-1.0,93.3,93.3,-1.0,93.31,93.29,93.27,-1.0,93.125,-1.0,93.105,93.06,93.025,93.025,93.03,93.06,93.03,93.05,-1.0,-1.0,93.02,-1.0,93.02,93.0,92.9,-1.0,92.91,92.86,-1.0,92.94,92.99,93.05,93.03,93.03,93.08,-1.0,93.15,-1.0,93.045,-1.0,93.04,93.09,93.09,-1.0,93.115,93.12,93.135,93.125,93.15,93.2,-1.0,-1.0,93.29,93.37,-1.0,-1.0,-1.0,93.37,93.17,93.075,-1.0,93.1,-1.0,92.99,92.975,92.88,92.94,92.85,-1.0,-1.0,92.82,-1.0,92.79,92.73,92.775,92.78,-1.0,92.83,92.77,92.8,92.86,92.82,-1.0,92.795,92.79,92.81,92.86,92.86,92.79,92.74,92.715,92.785,92.825,92.91,92.93,92.99,92.965,92.915,92.84,92.95,93.02,93.02,93.0,93.01,92.97,93.01,92.96,92.96,93.11,93.12,93.13,93.1,93.06,93.27,93.19,93.105,93.08
2019-05-20,-1.0,-1.0,93.33,-1.0,93.32,93.1,-1.0,93.14,-1.0,93.0,93.17,93.23,93.29,-1.0,-1.0,-1.0,-1.0,-1.0,93.66,93.5,93.45,93.395,-1.0,93.35,93.255,-1.0,93.525,-1.0,-1.0,-1.0,93.76,93.81,93.85,93.77,-1.0,-1.0,93.7,93.81,93.78,93.94,93.87,93.98,94.05,94.22,94.075,-1.0,94.235,94.23,-1.0,94.09,94.11,94.02,94.15,94.175,94.29,94.3,94.435,-1.0,94.3,94.32,94.25,94.22,94.17,94.25,94.22,-1.0,-1.0,-1.0,94.27,-1.0,-1.0,-1.0,-1.0,94.385,94.39,94.34,94.31,94.23,94.29,-1.0,-1.0,94.235,94.39,-1.0,94.5,-1.0,-1.0,94.465,-1.0,-1.0,94.44,94.435,94.24,94.23,-1.0,-1.0,-1.0,-1.0,94.04,-1.0,93.93,-1.0,-1.0,-1.0,-1.0,94.04,-1.0,94.01,93.93,93.805,-1.0,93.675,-1.0,93.65,-1.0,93.63,93.625,93.79,-1.0,-1.0,93.9,-1.0,-1.0,93.945,93.895,-1.0,93.77,-1.0,-1.0,93.85,93.93,93.985,-1.0,-1.0,-1.0,93.87,93.83,-1.0,-1.0,-1.0,-1.0,93.99,-1.0,93.99,93.96,-1.0,-1.0,-1.0,-1.0,94.03,94.07,94.07,94.17,-1.0,-1.0,-1.0,-1.0,94.04,-1.0,-1.0,-1.0,-1.0,94.09,94.065,94.11,-1.0,94.11,94.05,94.04,-1.0,-1.0,94.015,-1.0,-1.0,-1.0,94.07,-1.0,-1.0,-1.0,-1.0,-1.0,-1.0,-1.0,93.88,93.97,93.96,94.095,-1.0,-1.0,94.05,93.935,93.95,-1.0,94.03,-1.0,-1.0,94.07,-1.0,-1.0,-1.0,-1.0,93.98,93.97,-1.0,93.93,-1.0,93.99,-1.0,-1.0,-1.0,93.81,-1.0,-1.0,93.75,-1.0,-1.0,-1.0,93.74,-1.0,-1.0,-1.0,93.77,-1.0,93.71,93.66,-1.0,93.75,-1.0,-1.0,93.74,93.69,93.725,-1.0,-1.0,-1.0,93.68,93.65,-1.0,-1.0,-1.0,-1.0,93.58,93.535,-1.0,93.57,-1.0,93.57,-1.0,-1.0,93.5,-1.0,-1.0,-1.0,93.57,93.52,93.55,-1.0,93.525,93.54,93.54,-1.0,-1.0,-1.0,-1.0,-1.0,-1.0,-1.0,-1.0,93.435,-1.0,-1.0,-1.0,-1.0,-1.0,-1.0,-1.0,-1.0,93.41,-1.0,-1.0,93.43,-1.0,93.51,93.51,-1.0,-1.0,-1.0,93.51,-1.0,-1.0,93.45,-1.0,-1.0,-1.0,-1.0,93.57,93.61,-1.0,-1.0,-1.0,-1.0,93.54,93.59,-1.0,93.56,-1.0,-1.0,-1.0,-1.0,-1.0,-1.0,-1.0,-1.0,-1.0,-1.0,-1.0,-1.0,93.615,93.58,-1.0,-1.0,-1.0,-1.0,93.55,-1.0,-1.0,93.55,93.56,93.56,93.5,93.495,-1.0,93.45,-1.0,-1.0,-1.0,93.37,93.39,-1.0,93.365,-1.0,93.36,93.39,-1.0,-1.0,93.39,93.425,93.53,-1.0,-1.0,-1.0,-1.0,-1.0,93.49,-1.0,93.44,-1.0,93.43,-1.0,-1.0,-1.0,93.48,93.595,93.58,93.635,93.635,93.74,93.72,93.71,93.75,93.69,93.7,-1.0,93.63,93.605,93.6,93.64,93.565,93.57,93.54,93.57,93.555,93.6,93.66,-1.0,93.72,93.76,93.62,93.6,93.68
2019-05-21,94.31,94.31,94.41,-1.0,94.21,94.25,94.275,94.405,-1.0,-1.0,-1.0,94.63,94.77,94.81,94.805,94.65,94.77,-1.0,-1.0,-1.0,95.01,95.03,95.05,95.04,95.06,95.02,95.03,95.08,95.05,95.045,95.025,-1.0,95.225,95.28,95.2,95.135,-1.0,95.21,-1.0,95.02,94.97,95.06,95.18,95.185,-1.0,95.125,-1.0,95.185,95.05,95.02,-1.0,-1.0,94.99,94.92,94.88,-1.0,95.035,95.03,94.96,94.82,-1.0,-1.0,-1.0,94.925,94.93,-1.0,94.92,94.81,94.775,94.72,94.805,94.74,94.72,94.795,94.88,-1.0,94.98,95.0,95.015,94.945,-1.0,-1.0,94.985,94.945,94.96,-1.0,95.0,95.09,95.05,-1.0,95.145,95.17,-1.0,95.075,95.03,-1.0,95.135,-1.0,94.985,94.97,94.94,-1.0,-1.0,-1.0,94.985,95.11,95.015,95.005,95.0,-1.0,95.085,95.075,-1.0,-1.0,-1.0,95.185,95.21,-1.0,-1.0,95.03,-1.0,-1.0,-1.0,-1.0,-1.0,-1.0,-1.0,-1.0,-1.0,94.86,94.81,-1.0,94.89,94.91,-1.0,-1.0,94.91,94.9,-1.0,-1.0,94.8,-1.0,94.68,-1.0,94.62,-1.0,94.67,94.67,94.645,94.74,-1.0,-1.0,94.78,94.765,94.77,94.85,94.8,-1.0,-1.0,-1.0,-1.0,94.905,-1.0,94.88,94.95,-1.0,-1.0,94.9,94.89,94.93,-1.0,-1.0,-1.0,95.015,94.97,-1.0,-1.0,-1.0,94.98,94.99,94.99,-1.0,-1.0,-1.0,-1.0,-1.0,-1.0,95.065,-1.0,-1.0,-1.0,-1.0,-1.0,-1.0,95.0,-1.0,95.05,95.01,-1.0,-1.0,95.08,-1.0,95.05,-1.0,95.06,-1.0,-1.0,-1.0,-1.0,95.04,-1.0,-1.0,95.06,95.07,95.03,95.03,94.97,94.9,94.89,94.89,-1.0,-1.0,-1.0,94.93,94.94,-1.0,-1.0,-1.0,-1.0,-1.0,-1.0,94.86,-1.0,94.89,-1.0,-1.0,94.86,-1.0,94.87,-1.0,-1.0,94.96,-1.0,-1.0,-1.0,-1.0,94.93,94.94,-1.0,94.995,94.975,-1.0,-1.0,-1.0,-1.0,-1.0,-1.0,-1.0,-1.0,-1.0,-1.0,-1.0,-1.0,-1.0,-1.0,-1.0,94.99,-1.0,94.99,-1.0,95.0,-1.0,-1.0,95.07,-1.0,-1.0,-1.0,-1.0,-1.0,-1.0,-1.0,-1.0,95.15,95.13,95.16,95.18,95.21,95.21,-1.0,95.2,-1.0,-1.0,95.2,-1.0,95.225,95.23,95.14,95.215,-1.0,-1.0,-1.0,95.16,95.19,95.205,95.21,95.21,-1.0,-1.0,-1.0,95.26,95.35,95.34,-1.0,-1.0,-1.0,-1.0,-1.0,95.47,95.545,95.56,-1.0,-1.0,95.505,95.53,-1.0,-1.0,95.48,95.465,-1.0,95.46,95.48,95.48,95.445,-1.0,95.46,-1.0,-1.0,-1.0,-1.0,95.52,-1.0,-1.0,-1.0,95.46,-1.0,-1.0,-1.0,-1.0,-1.0,-1.0,95.4,-1.0,95.4,95.4,95.37,95.37,-1.0,95.56,95.57,95.6,95.605,95.67,95.67,95.63,95.63,95.72,95.76,-1.0,95.79,-1.0,95.925,95.905,95.865,95.86,95.89,-1.0,95.865,95.855,95.89,95.88,95.87,95.885,-1.0,95.885,95.86,95.835,95.81,95.785,95.8,95.79
2019-05-22,-1.0,95.155,95.34,95.38,94.91,94.95,-1.0,-1.0,-1.0,-1.0,94.995,94.975,94.95,-1.0,94.97,95.035,-1.0,-1.0,-1.0,94.84,94.915,94.92,94.86,-1.0,95.03,94.94,95.1,95.095,95.15,95.31,95.29,95.28,95.265,95.24,-1.0,95.23,95.135,95.05,-1.0,-1.0,94.965,94.93,-1.0,94.81,-1.0,94.85,94.89,-1.0,-1.0,-1.0,94.65,94.67,94.63,-1.0,-1.0,94.79,-1.0,94.645,94.83,94.8,94.63,-1.0,-1.0,94.59,94.53,94.47,-1.0,-1.0,94.18,94.25,94.19,94.18,-1.0,-1.0,93.97,93.95,-1.0,93.97,-1.0,-1.0,93.91,-1.0,93.87,93.85,93.88,-1.0,-1.0,-1.0,-1.0,93.63,-1.0,-1.0,93.47,93.36,93.45,-1.0,93.43,93.51,93.51,93.55,93.59,93.58,93.63,93.565,93.52,93.54,-1.0,-1.0,93.68,-1.0,93.62,-1.0,93.39,-1.0,-1.0,-1.0,93.305,93.24,-1.0,-1.0,-1.0,-1.0,93.41,93.35,93.3,-1.0,93.245,93.17,93.13,93.165,93.17,-1.0,93.235,93.24,93.245,93.24,-1.0,93.21,93.29,93.305,93.365,93.33,93.15,93.175,93.17,93.12,-1.0,93.1,-1.0,-1.0,-1.0,92.89,92.84,-1.0,92.93,-1.0,92.79,-1.0,92.845,92.825,92.815,92.83,92.87,-1.0,92.76,92.83,-1.0,-1.0,92.78,-1.0,-1.0,92.875,-1.0,-1.0,-1.0,92.895,92.86,-1.0,-1.0,-1.0,-1.0,92.99,-1.0,92.91,-1.0,-1.0,-1.0,-1.0,92.945,93.0,-1.0,-1.0,92.76,-1.0,-1.0,-1.0,92.79,-1.0,-1.0,-1.0,-1.0,92.69,-1.0,-1.0,92.78,-1.0,92.935,92.88,-1.0,-1.0,-1.0,-1.0,92.815,-1.0,-1.0,92.65,-1.0,-1.0,-1.0,-1.0,-1.0,92.625,-1.0,-1.0,-1.0,-1.0,-1.0,-1.0,-1.0,-1.0,-1.0,-1.0,-1.0,-1.0,92.575,92.575,92.63,-1.0,-1.0,-1.0,92.67,-1.0,-1.0,-1.0,-1.0,-1.0,-1.0,-1.0,-1.0,92.66,92.64,92.82,92.77,92.835,92.82,92.79,-1.0,-1.0,-1.0,-1.0,92.81,-1.0,92.755,92.75,92.75,92.835,-1.0,-1.0,-1.0,-1.0,-1.0,-1.0,92.78,92.77,92.625,92.68,-1.0,92.655,92.62,-1.0,-1.0,-1.0,-1.0,-1.0,92.59,92.55,92.565,92.525,92.52,92.51,92.57,92.54,92.54,92.595,92.57,92.59,92.65,92.6,92.595,-1.0,92.5,-1.0,-1.0,92.59,92.57,-1.0,-1.0,-1.0,-1.0,-1.0,-1.0,-1.0,92.63,-1.0,-1.0,92.62,92.615,92.68,92.68,-1.0,92.67,92.715,92.66,92.57,92.535,-1.0,92.53,-1.0,92.485,92.43,-1.0,92.575,92.52,-1.0,-1.0,92.65,92.8,-1.0,92.82,92.81,-1.0,-1.0,92.705,92.725,92.71,92.75,92.68,-1.0,92.615,92.705,-1.0,92.7,92.745,92.82,-1.0,92.97,-1.0,93.0,-1.0,92.84,92.825,92.83,-1.0,-1.0,-1.0,92.75,92.73,92.73,92.725,92.77,-1.0,-1.0,92.84,92.79,92.81,92.8,92.8,92.8,92.74,92.77,92.835,92.87,92.95,92.93,92.955,92.96,92.99,93.03,93.01,93.045
2019-05-23,90.56,90.24,90.34,89.85,89.83,89.55,-1.0,89.41,89.3,89.14,88.65,88.73,-1.0,88.17,88.29,88.26,88.455,88.49,88.5,88.625,-1.0,88.43,88.71,88.64,-1.0,88.415,-1.0,88.56,-1.0,88.33,88.39,88.39,88.67,88.57,88.68,88.435,88.655,88.5,88.5,88.295,88.235,88.205,88.24,88.05,88.095,88.22,88.145,88.075,88.05,87.84,87.625,87.63,87.59,87.64,87.6,87.535,87.44,87.565,87.525,87.555,87.42,87.54,87.7,87.715,88.085,87.875,-1.0,-1.0,87.975,87.98,88.02,87.85,87.975,87.86,87.86,87.79,87.96,87.91,87.95,88.08,88.04,88.09,88.1,88.1,88.29,88.185,88.225,88.28,88.18,88.21,-1.0,88.11,-1.0,88.25,88.38,88.36,88.28,88.39,88.39,-1.0,-1.0,88.43,88.52,88.55,-1.0,88.6,-1.0,88.6,88.56,88.57,88.57,88.59,88.55,88.46,88.285,88.43,88.44,88.335,88.17,88.3,88.16,88.03,88.25,88.2,88.12,-1.0,-1.0,-1.0,-1.0,88.18,88.05,-1.0,88.1,88.125,88.18,88.11,88.11,88.02,88.1,-1.0,88.165,88.13,88.13,88.09,-1.0,88.0,88.0,88.02,88.03,88.01,88.09,-1.0,88.175,88.24,88.305,88.26,88.3,88.26,88.255,88.15,-1.0,88.34,-1.0,88.31,88.33,88.36,88.28,88.21,88.18,88.165,88.205,-1.0,88.115,88.055,88.09,88.175,88.1,88.13,88.13,-1.0,-1.0,88.13,88.12,88.115,88.165,88.2,88.18,88.13,88.125,88.16,88.11,88.12,88.145,88.14,88.095,88.09,88.16,88.22,88.215,88.23,-1.0,-1.0,88.35,88.31,88.36,-1.0,88.17,88.16,-1.0,88.17,88.06,88.065,88.0,88.05,88.01,-1.0,-1.0,-1.0,88.08,-1.0,-1.0,88.03,88.05,87.94,87.965,87.92,87.87,87.92,87.92,-1.0,87.855,-1.0,-1.0,-1.0,-1.0,-1.0,87.915,-1.0,-1.0,88.065,-1.0,88.04,88.01,-1.0,-1.0,88.12,-1.0,88.16,88.29,88.24,-1.0,88.21,-1.0,-1.0,-1.0,88.08,88.085,88.05,88.085,88.085,88.04,88.02,88.045,88.0,87.935,87.89,-1.0,87.93,87.98,88.03,88.055,88.06,88.1,-1.0,87.93,87.95,-1.0,87.97,87.94,87.98,87.98,87.98,87.93,87.9,-1.0,87.92,87.95,87.94,-1.0,-1.0,87.99,88.045,88.17,88.19,88.205,88.17,88.16,88.16,88.17,88.16,88.13,88.08,88.02,-1.0,88.105,88.16,88.14,-1.0,88.16,88.1,88.1,88.1,88.06,87.96,87.91,87.95,-1.0,87.96,-1.0,-1.0,87.9,87.95,87.96,87.98,88.04,88.08,88.05,88.03,-1.0,88.065,-1.0,88.08,88.07,-1.0,87.97,87.96,-1.0,87.955,87.955,87.97,-1.0,-1.0,87.94,87.89,87.965,-1.0,88.055,88.12,88.365,88.31,-1.0,88.44,-1.0,88.51,88.485,88.43,-1.0,88.62,-1.0,-1.0,88.615,-1.0,88.75,88.915,88.9,88.925,89.015,88.95,88.95,88.89,88.87,88.73,88.75,88.62,88.66,88.8,88.76,88.665,88.76,88.75,88.71,88.71,88.71,88.78,88.81,88.82,88.78,88.75,88.73,88.87
2019-05-24,-1.0,-1.0,-1.0,90.015,-1.0,-1.0,89.615,89.36,89.5,-1.0,89.5,-1.0,-1.0,89.18,89.16,-1.0,-1.0,89.19,89.01,-1.0,-1.0,88.85,88.87,88.92,88.9,89.0,89.11,-1.0,-1.0,89.13,89.15,89.165,89.225,89.33,89.315,89.33,-1.0,89.11,-1.0,88.95,88.89,89.0,89.035,88.985,89.01,-1.0,89.07,89.13,89.11,89.09,89.02,89.11,89.23,89.17,89.12,89.04,89.03,89.11,89.13,89.025,88.98,88.99,88.94,-1.0,88.75,88.66,88.53,88.57,-1.0,-1.0,88.475,88.43,-1.0,88.4,88.36,88.365,-1.0,88.33,-1.0,-1.0,-1.0,88.045,-1.0,-1.0,87.96,-1.0,87.91,-1.0,88.06,88.03,87.95,87.91,87.92,87.955,87.945,87.845,87.8,87.83,87.8,-1.0,-1.0,87.45,87.29,-1.0,87.31,-1.0,-1.0,-1.0,-1.0,-1.0,87.33,-1.0,87.42,87.48,-1.0,87.525,87.515,87.52,87.47,87.38,87.54,87.5,87.43,-1.0,87.455,-1.0,-1.0,-1.0,87.385,87.385,-1.0,87.33,87.44,-1.0,87.335,87.33,87.36,-1.0,-1.0,-1.0,-1.0,87.25,87.34,-1.0,-1.0,87.33,-1.0,-1.0,87.23,87.22,87.175,87.175,87.14,87.155,87.18,-1.0,-1.0,87.165,87.15,87.14,-1.0,-1.0,87.11,-1.0,-1.0,-1.0,87.005,86.96,86.96,-1.0,86.98,87.0,-1.0,87.01,-1.0,87.0,-1.0,86.96,87.06,87.015,87.0,87.03,87.22,87.235,87.24,87.32,-1.0,-1.0,-1.0,87.36,-1.0,87.265,-1.0,87.25,87.25,-1.0,87.24,87.27,87.285,87.26,-1.0,-1.0,-1.0,-1.0,87.21,87.18,87.19,87.17,87.155,87.27,87.27,-1.0,87.26,87.26,87.24,-1.0,-1.0,-1.0,87.16,87.17,-1.0,87.17,87.165,87.15,-1.0,87.24,87.18,87.265,87.17,87.21,87.11,87.1,-1.0,87.1,87.11,87.105,87.115,87.1,87.07,87.0,87.055,87.08,-1.0,87.07,87.06,-1.0,-1.0,-1.0,-1.0,87.085,87.01,-1.0,-1.0,87.005,-1.0,87.01,-1.0,-1.0,-1.0,-1.0,-1.0,87.015,87.01,87.0,-1.0,86.94,-1.0,-1.0,86.92,87.005,87.0,86.98,87.02,86.99,-1.0,86.98,86.97,-1.0,86.9,86.96,-1.0,86.89,86.81,86.805,86.82,86.805,86.79,-1.0,-1.0,-1.0,86.78,86.75,86.75,86.745,86.77,-1.0,-1.0,-1.0,86.965,86.88,86.9,86.85,-1.0,-1.0,86.83,86.8,-1.0,-1.0,86.79,86.75,86.78,86.75,86.745,86.75,86.76,86.77,-1.0,-1.0,86.92,86.88,86.89,86.905,86.91,-1.0,86.87,86.89,86.905,-1.0,86.91,86.93,86.97,86.885,-1.0,86.96,86.94,86.94,-1.0,86.86,-1.0,86.9,86.905,87.005,87.005,-1.0,87.03,87.09,87.13,87.07,87.075,86.99,86.95,86.99,86.97,86.9,86.89,86.87,86.92,86.875,86.87,86.96,86.97,86.93,86.995,86.955,86.955,86.935,86.97,86.935,86.855,86.91,86.965,86.99,87.02,87.025,87.07,-1.0,87.12,87.27,87.23,87.31,87.25,87.24,87.23,87.17,87.24,87.3,87.215,87.22,87.21,87.22
2019-05-28,87.63,87.77,87.86,87.97,87.85,87.77,88.0,87.92,87.785,87.8,87.775,87.71,88.0,87.95,87.7,87.77,87.86,87.91,87.92,88.05,-1.0,87.94,-1.0,88.015,88.23,-1.0,-1.0,88.085,-1.0,88.16,88.205,88.17,88.15,88.15,87.92,88.07,88.07,-1.0,88.15,88.16,87.91,87.79,87.795,87.89,87.89,87.93,87.99,87.87,87.685,87.75,87.75,87.805,87.89,87.81,87.79,87.79,87.705,87.665,87.62,87.665,87.72,87.695,87.66,87.615,87.55,87.445,87.33,87.25,87.25,87.23,-1.0,87.23,87.245,87.275,87.26,87.19,87.3,87.405,87.42,87.4,87.42,87.245,87.125,87.04,87.15,87.13,87.175,87.07,87.195,87.155,87.39,87.42,87.535,87.48,87.42,87.525,87.63,87.76,87.73,87.75,87.675,87.63,87.585,87.74,87.79,87.68,-1.0,87.68,87.7,-1.0,87.72,-1.0,-1.0,87.71,87.655,87.675,87.61,-1.0,87.53,87.425,87.35,87.35,87.32,87.26,87.36,87.42,87.46,-1.0,87.49,87.43,87.585,87.57,-1.0,87.64,87.63,87.595,-1.0,87.58,-1.0,-1.0,87.42,87.46,87.43,87.33,87.345,87.245,87.27,-1.0,87.37,87.385,87.45,87.44,87.415,-1.0,87.37,-1.0,-1.0,87.415,-1.0,87.365,-1.0,87.355,-1.0,87.51,-1.0,-1.0,-1.0,-1.0,87.535,87.58,87.66,-1.0,87.6,87.61,87.63,87.63,87.67,87.675,-1.0,87.61,87.645,87.62,87.57,87.49,-1.0,-1.0,87.515,-1.0,-1.0,87.43,-1.0,-1.0,87.38,-1.0,-1.0,-1.0,87.4,-1.0,87.44,87.4,-1.0,-1.0,-1.0,87.42,87.38,87.32,87.35,87.33,-1.0,-1.0,87.28,-1.0,87.48,87.53,87.5,-1.0,87.535,-1.0,87.56,87.56,-1.0,-1.0,87.62,87.605,87.57,87.59,-1.0,87.72,87.64,87.55,-1.0,87.56,87.595,-1.0,-1.0,-1.0,87.55,87.62,-1.0,87.59,-1.0,87.58,87.56,87.605,87.66,-1.0,87.73,87.8,-1.0,-1.0,87.72,-1.0,-1.0,-1.0,-1.0,-1.0,87.67,-1.0,87.65,87.67,87.74,87.765,87.72,-1.0,87.61,87.7,87.635,87.595,87.66,87.69,87.61,-1.0,87.56,-1.0,87.51,-1.0,-1.0,87.49,-1.0,-1.0,87.5,-1.0,-1.0,87.33,87.405,87.42,87.44,87.42,87.49,-1.0,-1.0,-1.0,87.48,87.45,87.44,87.4,-1.0,87.48,-1.0,87.43,87.4,87.425,87.41,87.425,87.415,87.33,-1.0,87.255,87.28,87.25,87.14,-1.0,87.03,87.08,87.03,-1.0,87.15,87.205,87.18,87.225,-1.0,87.29,-1.0,87.35,87.38,-1.0,-1.0,87.415,-1.0,-1.0,87.44,-1.0,87.375,87.385,87.38,87.46,87.61,87.585,87.5,87.45,87.45,87.45,87.39,87.4,87.44,87.54,-1.0,-1.0,-1.0,87.525,87.455,-1.0,87.465,87.47,-1.0,87.45,-1.0,87.5,87.495,87.44,87.38,87.24,87.315,87.3,87.345,87.28,87.265,87.33,87.32,87.31,87.31,87.37,87.36,87.285,87.23,87.285,87.28,87.28,87.325,-1.0,87.39,87.3,87.26,87.26,87.29,87.335,87.26,87.27,87.32,87.25
2019-05-29,-1.0,86.02,86.07,86.025,85.77,85.635,85.885,85.97,85.73,85.66,85.71,85.645,85.63,85.605,85.69,85.6,85.57,85.525,85.34,85.37,85.31,-1.0,85.33,85.26,85.43,85.43,85.41,85.44,85.44,85.35,85.27,85.2,85.245,85.245,85.39,85.33,-1.0,-1.0,85.26,85.19,85.34,85.33,85.37,85.55,85.62,-1.0,-1.0,85.81,85.81,85.75,85.65,85.775,85.705,-1.0,85.77,85.705,-1.0,85.855,85.89,85.84,85.9,85.85,-1.0,-1.0,85.68,85.69,85.87,85.825,85.77,-1.0,85.83,85.76,85.76,85.78,85.87,85.77,85.81,85.84,85.79,85.82,85.84,-1.0,85.64,-1.0,85.695,85.71,-1.0,-1.0,85.71,85.73,85.67,85.75,85.77,85.74,85.71,85.63,85.55,85.63,85.65,85.55,-1.0,85.33,-1.0,85.39,-1.0,-1.0,85.04,85.2,85.17,85.14,85.03,84.95,84.825,-1.0,84.84,84.885,84.93,-1.0,-1.0,-1.0,84.94,85.05,-1.0,84.93,84.97,85.04,85.035,-1.0,-1.0,84.77,84.73,84.68,-1.0,84.41,84.49,84.45,84.525,84.49,84.54,84.56,84.57,84.49,84.41,84.3,-1.0,84.36,-1.0,-1.0,-1.0,-1.0,84.44,84.48,84.41,84.35,-1.0,84.44,84.6,84.55,-1.0,-1.0,84.66,84.69,84.79,84.79,84.81,-1.0,84.915,84.87,-1.0,84.9,84.855,84.75,84.7,-1.0,84.645,-1.0,84.74,84.76,-1.0,84.69,-1.0,-1.0,-1.0,84.85,-1.0,84.85,-1.0,84.77,84.83,84.96,84.95,-1.0,-1.0,-1.0,-1.0,85.01,85.075,-1.0,-1.0,84.9,-1.0,-1.0,84.87,84.85,84.95,84.92,-1.0,84.95,84.95,84.95,85.0,85.02,-1.0,-1.0,-1.0,-1.0,-1.0,85.29,85.49,85.54,85.6,85.71,-1.0,85.56,85.475,85.385,85.42,-1.0,85.45,-1.0,85.47,-1.0,-1.0,85.46,85.49,-1.0,-1.0,-1.0,85.69,-1.0,85.74,85.79,85.9,-1.0,85.88,85.92,-1.0,86.0,85.9,-1.0,85.91,85.84,-1.0,85.77,85.825,85.805,85.755,85.75,85.79,-1.0,-1.0,-1.0,-1.0,-1.0,-1.0,-1.0,-1.0,85.62,-1.0,-1.0,85.625,-1.0,85.61,85.65,-1.0,85.65,-1.0,85.75,85.71,85.7,85.65,85.64,85.65,85.53,85.53,85.55,-1.0,-1.0,-1.0,-1.0,85.63,85.695,85.73,85.73,-1.0,85.7,85.79,85.84,85.84,85.85,-1.0,85.76,85.75,-1.0,85.83,85.805,-1.0,85.885,85.88,85.87,85.825,85.785,85.835,85.84,85.72,85.71,-1.0,-1.0,-1.0,85.755,85.73,85.75,85.71,85.755,-1.0,85.76,85.87,85.915,85.96,85.98,85.98,85.945,85.9,85.87,85.895,85.84,85.825,85.825,85.89,85.87,85.87,-1.0,85.91,-1.0,-1.0,86.03,86.0,86.02,86.045,86.12,86.1,86.19,86.24,86.17,86.19,86.215,86.245,86.25,86.15,86.16,86.21,86.195,86.13,86.12,86.23,86.38,86.35,86.35,86.3,86.34,86.36,86.41,86.36,86.445,86.42,86.4,86.35,86.42,86.425,86.55,86.44,86.43,86.5,86.48,86.54,86.565,86.55,86.63,86.6,86.6
2019-05-30,-1.0,-1.0,86.48,86.36,-1.0,86.01,86.07,86.13,85.855,-1.0,-1.0,85.89,85.945,86.07,86.03,86.0,86.005,-1.0,85.97,85.975,85.985,85.91,85.995,86.035,85.98,86.04,86.04,86.13,86.05,86.06,85.83,85.87,85.94,85.91,-1.0,85.84,-1.0,85.55,85.61,85.63,85.655,85.69,85.8,-1.0,85.745,85.735,85.79,85.59,85.45,85.405,-1.0,85.4,85.39,85.37,85.37,85.29,85.375,85.37,85.34,85.34,85.34,85.31,85.215,85.23,85.175,85.13,-1.0,85.09,85.09,85.075,85.05,84.915,84.965,84.915,-1.0,85.055,84.98,85.025,84.95,84.875,84.825,84.785,84.8,84.86,84.895,85.055,85.155,85.295,85.38,85.31,85.16,84.77,84.46,84.32,84.56,84.54,84.415,84.32,84.355,84.44,84.4,84.49,84.63,84.715,84.76,84.725,84.66,84.6,84.48,84.41,84.39,84.22,83.99,-1.0,83.975,83.97,83.99,83.98,-1.0,83.89,83.87,84.04,84.005,84.015,84.12,84.23,84.225,84.35,84.355,84.33,84.38,84.305,84.375,84.27,84.25,84.185,84.175,84.225,84.18,84.03,83.99,83.985,83.9,83.86,83.88,83.94,83.95,83.99,84.06,84.115,84.145,-1.0,84.055,84.03,84.085,84.07,84.145,84.15,84.11,84.075,84.04,84.045,84.065,-1.0,84.075,84.17,84.25,-1.0,84.39,84.37,84.33,84.325,84.3,84.3,-1.0,84.245,84.2,84.25,-1.0,84.205,84.16,84.165,84.115,-1.0,84.16,84.26,84.25,84.29,84.34,84.355,84.375,84.32,-1.0,84.29,84.37,84.37,84.335,84.455,84.465,-1.0,84.49,84.47,84.475,84.475,84.47,84.44,84.47,84.46,84.41,84.45,84.445,84.44,-1.0,-1.0,84.44,84.4,84.37,84.28,84.25,84.22,84.245,84.23,84.25,84.2,84.22,84.23,84.26,84.25,84.23,-1.0,84.365,84.365,84.365,84.32,84.365,84.42,84.39,84.395,84.385,84.43,84.43,84.31,84.265,84.235,84.24,84.16,84.13,84.13,84.14,84.125,84.09,84.09,84.17,84.2,84.18,84.16,84.17,84.18,84.14,84.14,84.165,84.23,84.32,84.35,84.385,84.41,84.38,84.37,84.35,84.39,84.34,84.435,84.43,84.44,84.43,84.42,84.4,84.32,-1.0,84.26,84.285,84.3,-1.0,84.265,84.22,-1.0,84.13,84.14,84.115,84.155,84.195,84.195,84.15,84.14,84.09,84.07,84.07,84.1,84.145,84.125,-1.0,84.06,84.03,84.03,84.06,-1.0,-1.0,83.96,83.95,83.95,84.0,84.055,84.01,83.96,83.97,83.93,84.015,84.02,83.98,84.02,84.07,84.06,84.06,84.09,84.08,-1.0,84.21,84.21,-1.0,84.19,84.15,84.15,84.115,84.16,84.17,84.145,84.17,84.02,83.96,84.02,84.02,84.075,84.115,84.14,84.14,84.1,84.05,84.075,84.05,84.09,84.04,-1.0,84.02,84.01,84.0,83.935,83.92,83.965,84.03,84.02,83.95,83.945,84.01,84.03,83.99,84.085,84.1,84.14,84.12,84.08,84.08,84.06,84.07,84.045,84.035,84.045,84.06,84.075,84.05,84.01,84.03,84.03,84.05,84.03,84.0,83.96,83.95,83.985,83.925,83.95
2019-05-31,82.56,82.32,82.695,82.835,82.905,82.79,82.85,82.865,82.795,82.88,82.85,83.0,83.12,83.05,83.09,83.325,83.31,83.37,83.4,83.25,83.18,83.02,-1.0,-1.0,83.05,83.025,83.1,83.0,83.055,83.225,83.23,83.185,83.17,83.21,83.12,83.12,83.02,83.07,83.09,83.01,83.05,83.02,83.0,82.92,82.85,82.99,83.01,-1.0,83.18,83.23,83.26,83.4,-1.0,83.605,83.61,83.56,83.47,83.545,83.495,83.55,83.57,83.58,83.52,83.58,83.58,83.57,83.79,83.755,83.82,83.8,83.76,83.655,83.625,83.55,83.44,83.52,83.54,83.435,83.39,-1.0,83.61,83.58,83.59,83.65,83.615,83.6,83.45,83.435,83.47,83.45,83.425,83.42,83.41,83.41,83.22,83.09,-1.0,83.11,83.16,-1.0,83.22,-1.0,83.195,83.2,83.11,83.195,83.15,-1.0,-1.0,83.13,83.125,83.205,83.23,-1.0,83.41,-1.0,-1.0,83.315,83.43,83.44,83.43,83.37,83.435,83.32,83.36,83.375,83.41,83.4,83.32,-1.0,83.32,-1.0,83.34,83.28,83.265,83.22,83.15,-1.0,-1.0,83.16,83.19,83.225,83.185,-1.0,83.09,83.13,83.22,-1.0,83.255,83.33,83.3,83.315,83.25,83.19,-1.0,83.08,83.155,83.09,83.11,83.1,83.09,83.09,83.12,83.095,83.09,83.11,83.11,-1.0,83.15,-1.0,-1.0,83.22,83.19,83.11,83.145,83.09,83.06,83.09,83.1,-1.0,83.09,83.1,83.05,-1.0,83.09,83.055,83.075,-1.0,82.995,82.98,82.905,82.93,-1.0,-1.0,82.92,82.91,-1.0,82.93,82.93,82.96,-1.0,-1.0,82.95,82.91,-1.0,82.935,82.89,82.895,82.87,82.855,82.89,-1.0,82.94,-1.0,82.9,82.91,82.86,82.845,82.86,82.82,-1.0,82.92,82.9,82.87,82.85,82.85,-1.0,82.84,-1.0,-1.0,82.79,82.74,82.65,-1.0,82.73,82.71,-1.0,-1.0,82.695,82.71,-1.0,-1.0,82.71,82.73,82.7,82.715,82.705,82.68,82.7,-1.0,-1.0,82.57,82.55,82.53,-1.0,-1.0,82.545,82.54,82.625,-1.0,82.54,82.48,-1.0,82.49,-1.0,82.53,82.57,82.56,-1.0,-1.0,82.56,82.43,-1.0,-1.0,82.37,82.37,82.375,-1.0,82.35,82.39,82.33,82.31,82.3,-1.0,82.265,82.26,82.295,82.28,82.28,-1.0,82.23,82.23,82.255,82.255,82.21,82.175,82.15,82.17,82.14,82.16,82.145,82.09,-1.0,82.075,82.09,82.11,82.14,82.15,82.14,82.1,82.13,82.19,82.26,82.305,82.29,82.34,82.31,82.3,82.325,82.33,82.37,82.39,82.4,82.49,82.455,82.415,82.46,82.51,82.46,-1.0,82.355,82.32,82.345,82.29,82.205,82.2,82.15,82.09,82.065,82.04,82.0,82.02,82.03,82.035,82.01,82.04,82.03,81.985,81.99,81.99,82.06,-1.0,82.025,81.96,81.99,82.0,81.99,81.905,81.855,81.98,-1.0,81.975,81.96,82.0,81.97,81.965,81.93,81.92,81.885,81.89,81.91,81.915,81.95,81.96,81.935,81.94,81.945,82.015,82.09,82.07,82.05,81.98,81.945,81.95,81.965,81.94,81.96,81.945,81.975,82.015
