,09:30,09:31,09:32,09:33,09:34,09:35,09:36,09:37,09:38,09:39,09:40,09:41,09:42,09:43,09:44,09:45,09:46,09:47,09:48,09:49,09:50,09:51,09:52,09:53,09:54,09:55,09:56,09:57,09:58,09:59,10:00,10:01,10:02,10:03,10:04,10:05,10:06,10:07,10:08,10:09,10:10,10:11,10:12,10:13,10:14,10:15,10:16,10:17,10:18,10:19,10:20,10:21,10:22,10:23,10:24,10:25,10:26,10:27,10:28,10:29,10:30,10:31,10:32,10:33,10:34,10:35,10:36,10:37,10:38,10:39,10:40,10:41,10:42,10:43,10:44,10:45,10:46,10:47,10:48,10:49,10:50,10:51,10:52,10:53,10:54,10:55,10:56,10:57,10:58,10:59,11:00,11:01,11:02,11:03,11:04,11:05,11:06,11:07,11:08,11:09,11:10,11:11,11:12,11:13,11:14,11:15,11:16,11:17,11:18,11:19,11:20,11:21,11:22,11:23,11:24,11:25,11:26,11:27,11:28,11:29,11:30,11:31,11:32,11:33,11:34,11:35,11:36,11:37,11:38,11:39,11:40,11:41,11:42,11:43,11:44,11:45,11:46,11:47,11:48,11:49,11:50,11:51,11:52,11:53,11:54,11:55,11:56,11:57,11:58,11:59,12:00,12:01,12:02,12:03,12:04,12:05,12:06,12:07,12:08,12:09,12:10,12:11,12:12,12:13,12:14,12:15,12:16,12:17,12:18,12:19,12:20,12:21,12:22,12:23,12:24,12:25,12:26,12:27,12:28,12:29,12:30,12:31,12:32,12:33,12:34,12:35,12:36,12:37,12:38,12:39,12:40,12:41,12:42,12:43,12:44,12:45,12:46,12:47,12:48,12:49,12:50,12:51,12:52,12:53,12:54,12:55,12:56,12:57,12:58,12:59,13:00,13:01,13:02,13:03,13:04,13:05,13:06,13:07,13:08,13:09,13:10,13:11,13:12,13:13,13:14,13:15,13:16,13:17,13:18,13:19,13:20,13:21,13:22,13:23,13:24,13:25,13:26,13:27,13:28,13:29,13:30,13:31,13:32,13:33,13:34,13:35,13:36,13:37,13:38,13:39,13:40,13:41,13:42,13:43,13:44,13:45,13:46,13:47,13:48,13:49,13:50,13:51,13:52,13:53,13:54,13:55,13:56,13:57,13:58,13:59,14:00,14:01,14:02,14:03,14:04,14:05,14:06,14:07,14:08,14:09,14:10,14:11,14:12,14:13,14:14,14:15,14:16,14:17,14:18,14:19,14:20,14:21,14:22,14:23,14:24,14:25,14:26,14:27,14:28,14:29,14:30,14:31,14:32,14:33,14:34,14:35,14:36,14:37,14:38,14:39,14:40,14:41,14:42,14:43,14:44,14:45,14:46,14:47,14:48,14:49,14:50,14:51,14:52,14:53,14:54,14:55,14:56,14:57,14:58,14:59,15:00,15:01,15:02,15:03,15:04,15:05,15:06,15:07,15:08,15:09,15:10,15:11,15:12,15:13,15:14,15:15,15:16,15:17,15:18,15:19,15:20,15:21,15:22,15:23,15:24,15:25,15:26,15:27,15:28,15:29,15:30,15:31,15:32,15:33,15:34,15:35,15:36,15:37,15:38,15:39,15:40,15:41,15:42,15:43,15:44,15:45,15:46,15:47,15:48,15:49,15:50,15:51,15:52,15:53,15:54,15:55,15:56,15:57,15:58,15:59
2019-04-01,38455.0,57683.0,13701.84,20383.54,95.91,42862.63,26173.52,57690.5,191.94,67483.295,16449.17,10967.45,0.0,0.0,191.98,0.0,9573.0,38317.0,191.6,0.0,9582.0,0.0,9614.0,19243.0,19149.77,9607.0,9603.0,9594.0,0.0,9585.0,20634.45,0.0,0.0,19233.0,19285.0,9645.5,0.0,9641.0,10396.12,0.0,26338.28,19216.0,0.0,9626.0,0.0,9619.0,0.0,19221.0,0.0,11528.285,38645.3,57681.0,9617.0,9611.0,9611.0,96.065,0.0,0.0,0.0,9613.0,19230.0,0.0,0.0,0.0,0.0,19222.0,0.0,19264.0,0.0,0.0,9630.0,0.0,9626.0,288.69,9624.5,0.0,28883.0,9631.0,9631.0,29033.435,0.0,28924.0,0.0,28905.0,19557.05,19271.0,19295.0,386.24,0.0,0.0,0.0,0.0,10338.27,19454.79,12574.9,3574.755,14488.25,19402.52,9648.0,28950.0,4630.8,0.0,9661.0,9655.0,0.0,9652.0,19304.0,0.0,37492.68,0.0,57909.0,0.0,0.0,0.0,9635.0,9634.0,0.0,0.0,0.0,28921.0,38545.0,1252.81,9629.0,64947.0,29269.06,67409.0,19252.0,0.0,38460.0,0.0,0.0,0.0,0.0,0.0,0.0,0.0,38392.0,19194.0,0.0,0.0,9702.04,0.0,9610.0,0.0,19255.0,0.0,19242.0,0.0,10984.18,0.0,9636.0,67361.0,0.0,0.0,0.0,14537.525,0.0,0.0,0.0,0.0,9619.0,9623.0,0.0,0.0,0.0,0.0,0.0,0.0,0.0,9624.0,10110.475,9635.0,0.0,0.0,21707.5,1061.005,0.0,385.64,0.0,19290.0,0.0,9650.0,0.0,0.0,482.35,0.0,0.0,0.0,9643.0,19306.0,3667.76,3185.49,9650.0,4631.52,9652.0,0.0,9656.0,0.0,0.0,12074.5,0.0,0.0,0.0,0.0,0.0,0.0,0.0,0.0,0.0,19345.0,14991.5,0.0,0.0,193.46,9771.74,0.0,10151.07,9861.38,29009.0,0.0,0.0,0.0,0.0,0.0,0.0,0.0,2611.71,7059.83,9670.0,9672.0,9862.4,9953.94,0.0,9672.5,0.0,9668.0,9670.0,0.0,19347.0,9674.0,290.31,0.0,9682.0,0.0,0.0,9692.0,0.0,9677.0,0.0,0.0,9683.0,0.0,0.0,9679.0,0.0,9679.0,9682.0,0.0,19368.0,34295.02,0.0,9689.0,19393.5,19393.17,0.0,387.68,0.0,0.0,0.0,9691.0,29082.0,9695.0,9693.5,19368.0,25955.8,9686.0,67816.0,0.0,29073.0,105434.74,38805.0,9702.86,10677.7,38906.03,9707.0,58828.925,10292.1,9710.0,11654.2,9711.0,0.0,0.0,0.0,9699.0,0.0,0.0,19368.0,0.0,9681.0,484.225,29051.0,8912.04,290.73,0.0,0.0,25111.05,0.0,9702.0,0.0,9701.0,9700.0,9694.0,0.0,29063.0,77492.0,9688.0,9687.0,9778.82,19366.0,0.0,13950.72,0.0,0.0,9681.0,9681.0,0.0,9687.0,0.0,16761.97,19377.0,4651.68,0.0,0.0,9690.0,9691.0,9688.0,0.0,0.0,2807.84,0.0,48705.49,9681.0,10540.54,19343.0,9676.0,9963.655,19350.0,25663.3,9882.74,9688.0,9974.61,19382.94,9692.0,12112.625,57690.15,174482.0,96.785,38724.5,9683.5,29051.0,20908.72,0.0,38720.5,58075.0,48376.0,319126.765,274212.18,65299.1,25772.2,9680.0,19651.545,28768.98,29072.0,21038.17,39869.17,62046.5,29072.5,48450.0,58162.0,19386.0,56420.49,9691.0,48504.5,19392.0,29087.0,50431.5,118174.42,127223.045,88205.89,135006.12
2019-04-02,29167.0,9722.5,0.0,4962.3,0.0,35147.54,13402.56,0.0,0.0,22128.11,51906.2,25269.07,30768.63,20583.32,777.64,0.0,39181.67,87407.06,147469.4,9696.0,96.91,20729.58,9691.0,42953.71,58180.5,194295.55,219310.96,165529.3,116799.0,116869.06,0.0,0.0,56811.74,0.0,0.0,19533.0,70004.22,0.0,9764.5,0.0,0.0,0.0,0.0,0.0,0.0,19507.0,0.0,0.0,0.0,780.48,97.59,24718.23,0.0,0.0,17773.96,15111.85,0.0,9733.5,0.0,0.0,1266.46,0.0,0.0,10133.56,9750.0,9946.03,0.0,0.0,0.0,9715.0,0.0,9711.0,4470.28,0.0,0.0,9702.5,56362.0,0.0,29111.0,0.0,29085.0,0.0,9687.0,9694.01,1551.52,19368.0,9671.0,38667.5,38682.0,29001.5,9667.0,0.0,33756.5,9651.0,0.0,48480.655,19318.0,9651.0,9665.0,19304.0,28966.0,48289.5,453901.76,67568.5,134776.0,76976.0,481.25,9648.0,38602.0,37245.0,66128.76,9655.0,0.0,10146.15,77348.0,28996.5,0.0,28985.0,0.0,0.0,0.0,9672.0,9662.0,144843.0,9671.0,0.0,0.0,9950.65,2412.0,0.0,9654.0,0.0,9665.0,0.0,9673.0,0.0,10630.2,9669.0,38683.5,483.125,0.0,0.0,9683.0,19365.5,9687.0,0.0,19366.0,7360.6,0.0,9691.5,0.0,0.0,9687.0,0.0,0.0,9687.0,9692.0,9691.0,19381.0,9689.0,38717.0,0.0,0.0,0.0,0.0,290.19,9667.0,3575.68,2126.41,0.0,0.0,1449.75,19340.0,0.0,19327.0,0.0,0.0,38602.5,3663.2,0.0,28947.0,15913.03,0.0,28928.0,0.0,0.0,9174.15,0.0,0.0,0.0,9651.0,0.0,0.0,0.0,0.0,19303.0,0.0,0.0,0.0,0.0,385.8,867.735,0.0,0.0,9651.0,0.0,9649.0,19296.0,0.0,0.0,0.0,0.0,48245.0,0.0,9641.0,0.0,0.0,0.0,0.0,0.0,9666.0,386.28,0.0,0.0,0.0,0.0,19313.0,47884.88,0.0,0.0,0.0,0.0,0.0,0.0,0.0,9659.0,0.0,0.0,0.0,0.0,11192.84,19291.0,12245.475,0.0,0.0,0.0,9653.0,0.0,0.0,0.0,0.0,0.0,9647.0,482.4,0.0,0.0,19276.5,22054.7,0.0,0.0,10971.08,0.0,9633.0,0.0,19268.5,19292.0,0.0,0.0,9635.0,9633.0,13299.68,0.0,0.0,9645.0,0.0,1061.83,9650.0,0.0,0.0,0.0,19290.0,0.0,4825.5,9640.0,0.0,18305.5,9635.0,0.0,9633.0,9631.5,9626.0,0.0,1635.91,9616.0,19244.0,0.0,0.0,0.0,9629.5,0.0,0.0,0.0,0.0,0.0,0.0,19262.0,0.0,28890.5,43317.0,10014.08,6261.45,9730.33,65690.33,25913.48,41418.895,9633.0,18788.25,67422.5,67371.5,97679.0,18472.37,0.0,38484.0,2883.0,0.0,10276.245,20077.72,0.0,9621.0,19235.5,67339.5,214469.2,28880.0,192572.5,59124.06,22065.02,37172.12,0.0,48604.2,78117.96,9622.9,13089.0,29251.92,9624.0,28994.355,17816.425,9624.0,2502.24,1541.015,10399.4,5966.915,28865.0,0.0,57985.66,9624.5,19438.26,9998.72,154299.72,172974.5,0.0,577.23,9619.0,0.0,0.0,28870.0,0.0,28879.5,0.0,9637.0,38544.5,0.0,20426.2,9638.0,9632.0,19256.5,87880.77,153622.53,38532.0,19268.5,48157.5,38521.5,38518.0,243372.35,57753.0,84352.29,48119.0,31549.1,153864.25,136087.6,101004.79
2019-04-03,19272.0,19262.5,0.0,14520.62,0.0,36921.87,192.56,9152.3,0.0,9608.0,9601.5,24100.49,124904.0,3941.74,961.35,19236.0,67438.64,86699.71,76897.5,134655.03,76945.5,38432.0,0.0,0.0,19191.0,67183.5,38395.0,9584.5,9585.0,38320.0,66991.5,38238.0,71229.6,66906.0,28634.0,19385.965,0.0,668.22,19121.5,95.69,2777.545,19171.0,9585.5,0.0,9581.0,2012.43,9598.5,28830.0,9612.0,0.0,76905.5,28816.5,9891.09,28813.5,28816.0,252859.75,87654.59,95906.0,0.0,0.0,87146.72,19412.92,9552.0,9551.0,0.0,0.0,136943.85,78484.98,125622.67,69057.27,31275.67,9594.0,0.0,9594.0,0.0,9586.5,4610.4,19202.0,383.92,0.0,19207.0,0.0,9901.39,33670.5,9617.0,9629.0,0.0,19218.0,9611.0,19309.01,19199.5,9609.0,673.015,19246.0,0.0,2888.055,0.0,0.0,0.0,0.0,0.0,19674.96,19174.0,383.08,0.0,19151.37,0.0,19142.0,0.0,9573.0,9556.0,0.0,28649.0,0.0,9548.0,19098.5,27765.99,2670.28,9547.0,9540.5,24799.755,9543.0,19187.48,0.0,9536.0,9543.0,9533.0,0.0,19056.0,9528.0,0.0,0.0,1999.83,39111.65,1999.305,19899.755,0.0,9513.0,0.0,9520.0,0.0,19062.0,3528.32,9535.0,38146.0,9538.0,0.0,10314.51,9547.0,95.345,38165.35,31022.37,134821.72,47732.5,1145.64,39534.875,28645.5,19105.0,0.0,57730.86,32521.52,67061.435,12591.28,9628.82,9533.0,9541.0,28607.55,19187.46,19082.0,95.4,28627.0,9919.395,39491.905,381.52,9544.0,6395.775,97753.25,85884.5,38145.0,21343.0,31549.0,63308.04,19067.5,66726.5,19029.5,28535.0,9516.0,0.0,38052.0,95152.5,61877.0,27416.67,1142.52,76076.5,95040.0,28474.96,19162.76,0.0,28469.5,28459.0,47422.0,151366.7,9484.0,28449.5,9478.0,9473.0,9477.0,0.0,9473.0,189.28,0.0,0.0,9470.0,0.0,0.0,9473.0,0.0,22821.98,0.0,9468.0,0.0,0.0,946.8,0.0,0.0,28377.0,0.0,28364.0,9451.0,0.0,9456.0,19006.58,18920.0,9460.0,18918.0,0.0,0.0,13428.94,9457.0,19858.0,9457.5,0.0,9452.0,0.0,0.0,9546.51,0.0,0.0,9451.0,0.0,1983.24,0.0,12266.65,28307.0,1227.17,47186.0,113232.0,84906.5,84930.0,18864.0,94.275,29037.32,0.0,21679.21,9426.0,19224.92,0.0,9412.5,470.42,16472.75,2353.25,114999.14,88316.46,28189.0,9401.0,9400.0,9400.5,0.0,15774.38,0.0,0.0,93.91,0.0,0.0,0.0,0.0,9383.0,0.0,93.82,93.8,9383.0,1221.48,15691.65,18800.0,281.94,11287.005,0.0,0.0,0.0,282.69,9417.0,9420.0,0.0,9516.19,1036.29,9513.18,0.0,0.0,33283.12,18850.0,188.45,30641.97,9425.0,14407.445,9415.5,47288.83,21288.13,56518.5,39002.33,47475.95,37870.5,0.0,0.0,9440.0,75614.39,47747.31,47934.26,28308.0,0.0,38211.75,9993.7,28393.33,19532.88,18870.0,37742.5,95033.635,47175.5,9528.33,18864.0,1979.28,471.1,18845.0,18923.16,28154.83,10268.78,67046.19,9416.0,25810.2,56067.9,28371.26,9420.0,12706.2,5090.04,18830.0,19010.34,9422.0,9428.0,0.0,94.315,28323.0,198169.11,40187.73,150997.0,19246.24,77202.66,64516.66,18865.5,37842.33,18859.0,0.0,0.0,9430.0,38025.55,1603.95,9531.885,9436.0,29432.15,0.0,28760.95,0.0,37732.0,18854.5,106085.085,150531.5,137730.32,105295.115,128962.22,314801.51,373207.44,296732.11
2019-04-04,0.0,0.0,87145.95,18782.0,9411.0,9431.5,1791.13,0.0,28289.0,94.37,9433.0,103758.5,34386.0,0.0,9416.0,0.0,0.0,18755.0,41465.36,1404.0,28088.5,28140.0,97239.485,53003.4,28176.0,0.0,0.0,9363.5,4307.21,4307.9,84241.0,49420.48,133631.74,9362.0,39957.32,28062.5,37425.5,37426.5,102876.5,4301.69,93.46,4205.7,187.08,23013.84,9349.0,0.0,9346.0,0.0,0.0,0.0,37412.0,121641.5,346558.5,103182.78,49622.5,18718.0,18701.0,0.0,0.0,0.0,0.0,0.0,51105.4,10534.99,9320.0,23003.32,0.0,186.18,50785.5,0.0,6508.25,9295.0,15338.425,83702.5,9300.0,9326.5,475663.19,0.0,559.56,29106.28,0.0,27981.0,29377.5,49399.2,0.0,37266.5,0.0,0.0,15358.05,18618.0,9306.0,27905.0,65184.0,46834.86,112349.74,9409.17,51649.68,104030.65,66871.66,143442.68,80444.18,44328.0,37352.5,95179.85,373.64,9337.0,27982.0,27963.5,18643.0,46598.5,46521.5,18609.0,9301.5,0.0,37234.0,18657.0,37315.5,55974.5,121579.72,326939.365,18665.0,9323.0,18641.0,9331.0,0.0,18662.0,28023.5,46789.5,0.0,730508.5,46811.5,18722.0,84311.0,18734.0,46799.0,9371.0,37484.0,174073.94,80048.84,1313174.035,196663.5,0.0,74954.0,131226.0,613277.3,37482.5,528589.7,37467.5,103550.15,205074.98,95367.8,130882.04,140193.66,91379.25,9372.0,46858.0,56220.5,386799.1,0.0,0.0,18723.0,28067.0,28060.0,0.0,9342.0,18762.32,9329.0,9321.0,9320.0,21281.84,18677.5,11963.72,0.0,9363.0,9358.0,18698.0,9347.74,93.525,9353.0,0.0,0.0,9357.0,0.0,37384.0,186.82,187.12,187.06,93.49,28045.0,2990.72,9349.0,9346.0,37372.0,0.0,3555.66,0.0,0.0,19913.37,0.0,28056.0,467.95,655.13,0.0,183073.7,28095.0,84333.0,28104.0,28098.0,0.0,18718.0,0.0,0.0,11974.4,0.0,47915.345,654.57,0.0,0.0,0.0,0.0,1121.91,0.0,0.0,0.0,0.0,0.0,0.0,3365.095,2713.24,28074.0,336821.5,385715.65,0.0,46785.64,18718.0,0.0,0.0,46773.0,430936.905,365323.25,46793.0,552028.5,0.0,0.0,10298.9,0.0,3653.91,28107.0,7210.28,0.0,0.0,0.0,16099.98,2620.38,37437.5,0.0,0.0,28098.0,46800.0,62830.28,18691.5,18717.0,46787.0,10207.67,75002.5,392538.4,385140.285,259893.56,1043259.9,196633.5,95952.25,63179.25,105398.1,56162.0,18720.0,0.0,324348.0,922442.76,75194.95,158127.88,209721.155,393387.0,974116.0,46836.0,93680.0,85138.44,140445.82,351431.42,56190.0,64539.17,206051.0,0.0,187318.0,11329.44,0.0,33761.39,0.0,45192.16,9346.0,748.0,9348.0,20659.75,9360.0,28098.0,280.92,3560.22,9372.0,0.0,0.0,37459.0,9366.0,28090.45,18721.0,9542.59,19168.6,0.0,9628.53,9343.0,9340.0,0.0,0.0,0.0,3545.94,9338.5,0.0,3175.87,9340.5,9341.0,0.0,0.0,467.35,186.86,0.0,0.0,0.0,747.2,1027.95,9342.0,173702.715,9338.0,9338.0,0.0,0.0,0.0,9343.0,0.0,0.0,0.0,935.1,280.53,0.0,0.0,18685.0,0.0,0.0,0.0,22524.86,18684.5,66059.3,9526.78,51763.92,9340.0,9343.0,15888.4,9350.0,65447.0,38057.5,73610.98,46310.975,67621.69,130465.26,73804.275,242496.9,0.0,60850.79,74823.0,46802.0,18728.0,56175.0,37434.5,74979.575,44754.03,94059.9,37552.6,187135.0,75254.84,65520.0,242462.27,414123.855,542644.77
2019-04-05,0.0,9443.0,0.0,28419.0,0.0,47732.4,8144.775,9467.0,9557.65,44846.29,9455.0,0.0,9469.0,9465.0,29536.68,0.0,0.0,19012.0,0.0,10007.42,19075.0,0.0,19071.5,19053.5,9535.0,28559.0,11430.34,17261.97,9539.0,21870.01,9560.0,0.0,28708.0,76920.1,0.0,9595.0,28805.0,5958.2,96.19,106938.01,29053.3,9623.0,20118.2,0.0,0.0,28907.5,19266.5,9636.0,67459.0,11570.8,0.0,48460.58,70794.12,28976.5,70571.585,102492.43,68695.71,75810.5,19381.93,9644.0,48218.0,35096.18,8605.41,28973.5,48299.5,48289.5,57968.0,193332.5,9662.0,19324.0,38633.5,0.0,28989.0,9664.0,29004.0,75433.81,9676.5,38720.5,48924.485,9685.0,182624.455,155479.38,52170.885,9705.0,17272.39,48541.5,67981.0,193459.41,48502.3,12034.6,19395.0,19415.5,9712.0,29121.5,0.0,29077.0,17951.85,0.0,19434.0,29151.5,36430.25,9723.0,9727.0,48692.0,146147.5,126646.0,27080.47,0.0,19487.0,9840.39,34564.49,39443.56,41466.0,29272.0,9753.0,194.81,48658.5,38841.5,10585.45,59832.29,97.04,58176.02,49236.6,47760.69,164323.72,164964.35,3490.56,116370.0,216940.38,109485.5,19395.0,19400.5,0.0,0.0,0.0,0.0,0.0,0.0,0.0,9708.0,0.0,0.0,9709.0,0.0,0.0,97.25,7777.2,0.0,0.0,0.0,0.0,29153.0,0.0,0.0,38838.0,25529.355,9803.05,0.0,19422.0,9711.0,0.0,2331.6,9717.0,16423.42,97.15,0.0,0.0,0.0,29159.5,3692.84,205519.23,1264.38,39962.92,19438.0,0.0,98467.92,19466.0,0.0,194.68,9737.0,0.0,0.0,0.0,0.0,0.0,0.0,0.0,43867.77,68334.965,19431.0,16911.06,19439.0,0.0,9721.0,9727.0,0.0,48133.86,0.0,9742.0,11494.11,0.0,0.0,9757.0,0.0,19524.0,9761.0,20322.3,2052.96,14369.25,23378.79,19557.0,0.0,30726.4,62642.9,23007.15,29373.0,29959.22,21244.98,10884.22,29415.0,392.32,187860.64,42936.0,166618.0,117663.0,19996.625,146976.0,19612.0,9808.0,98109.0,10885.99,31015.98,28481.24,61204.98,49112.0,18161.45,0.0,19640.0,120334.375,108911.0,105174.78,58918.0,490.3,0.0,0.0,0.0,0.0,0.0,33107.4,30687.2,47098.49,9829.0,68775.0,58458.8,29472.0,19629.0,0.0,9816.0,9820.0,19643.0,19646.0,19653.0,29471.0,19645.0,9826.0,19743.72,19653.0,31454.8,0.0,22525.86,0.0,1968.6,13776.6,38348.7,98447.5,78804.0,57524.0,319761.52,36855.0,9826.0,9824.0,120303.5,29476.0,19663.0,0.0,49174.5,37712.5,0.0,1083.5,0.0,9836.0,19656.0,0.0,0.0,49140.0,19944.69,9823.0,29472.0,3049.935,3641.08,0.0,19779.89,36876.5,58974.0,58998.0,39333.5,28495.6,9432.0,39303.0,19666.5,7573.62,0.0,29425.985,9841.0,49181.0,0.0,19651.0,19645.0,0.0,55084.58,19638.0,5990.2,0.0,39263.0,68708.5,9816.69,29452.0,442194.5,481779.0,304557.465,49189.0,79681.515,0.0,0.0,19700.0,78000.23,59111.0,19678.0,0.0,29507.0,68875.5,99663.84,137762.0,9844.0,34755.95,43491.68,0.0,9841.0,9845.0,98.41,20276.58,19701.0,16741.6,0.0,10136.2,196.8,19681.0,19687.5,12899.57,19688.5,49217.0,9854.0,29553.0,20601.31,73735.88,68959.5,30712.04,49227.0,19690.0,39377.5,34577.9,82073.61,24920.72,59065.0,11122.09,30215.87,89042.44,30044.5,75438.83,41936.38,131940.915,70859.6,59956.87,68901.0,70325.26,169210.84,69026.0,305455.23,496890.435,1070172.91
2019-04-08,29745.5,38001.68,18758.28,69931.0,29988.0,19960.5,2496.25,47796.435,21123.26,18403.205,32455.96,500.48,20331.23,20993.76,30048.0,62018.44,30419.5,20662.4,30271.0,20163.5,201768.93,40312.0,345609.57,30235.0,0.0,10061.0,70148.0,18457.04,30031.5,40103.0,31051.0,30024.0,30027.0,24630.64,89992.5,89941.5,280266.0,90034.5,118317.745,143069.14,180083.5,10000.0,0.0,70035.0,0.0,17526.25,20033.0,73313.24,120552.0,30159.0,41509.26,11141.8,0.0,0.0,28319.8,220902.96,10029.0,10242.38,30106.0,20059.0,40070.5,38557.575,130111.5,29537.36,30040.5,40046.0,30070.0,30083.0,10027.0,194113.9,151562.9,20072.0,10034.0,30077.5,10021.0,0.0,47840.96,10611.66,0.0,10007.5,11627.89,10732.6,0.0,0.0,0.0,10029.0,10017.0,10017.0,300.48,10015.0,2003.7,20027.0,89831.74,0.0,120173.94,105313.5,23190.18,109998.5,0.0,0.0,26484.05,9993.0,59879.0,39914.0,19929.0,19918.0,0.0,12723.08,0.0,893.61,10904.5,2379.84,19847.5,0.0,29362.32,61496.9,9917.0,0.0,9924.0,0.0,29822.0,0.0,0.0,22297.01,0.0,0.0,0.0,9937.5,9948.0,19890.5,98389.8,29801.5,49685.0,0.0,32302.125,16005.01,0.0,895.32,4972.74,9954.5,21692.72,0.0,19878.0,9948.0,0.0,0.0,9941.5,0.0,0.0,0.0,19872.0,0.0,0.0,0.0,0.0,0.0,19969.35,19852.5,12001.25,19839.0,70435.4,0.0,0.0,0.0,12389.5,0.0,9923.0,0.0,198.78,596.4,10626.37,0.0,0.0,63882.91,248376.0,229075.56,143581.55,29832.0,0.0,139181.0,993.5,99350.0,99200.0,188571.0,104555.775,396774.5,20838.2,19849.0,0.0,0.0,38869.43,9947.0,9946.0,10739.52,20199.59,10252.62,9957.0,9953.0,0.0,9344.07,9947.0,9949.04,19902.0,0.0,9951.0,0.0,29883.0,3985.2,0.0,9959.0,0.0,0.0,9942.5,9947.0,9944.0,298.23,28628.02,26650.9,9945.0,5072.46,1790.64,0.0,0.0,9946.0,0.0,9936.0,0.0,0.0,0.0,9939.0,0.0,0.0,0.0,9943.0,0.0,0.0,0.0,0.0,1391.6,19671.72,40713.83,29790.0,9941.0,9936.0,9937.0,0.0,9929.0,0.0,45437.145,9941.5,73996.14,9946.0,9941.0,38096.755,23364.835,37986.13,29846.0,17413.375,29852.5,39782.0,9950.0,9952.0,10239.23,0.0,13934.0,0.0,895.095,29832.0,39796.5,0.0,0.0,10342.9,60310.16,188914.5,656750.46,507325.0,198796.5,49645.0,9935.0,9935.0,29810.0,0.0,0.0,0.0,0.0,0.0,0.0,0.0,0.0,9934.0,0.0,335421.38,26408.65,10222.28,0.0,0.0,148929.0,20553.33,9933.0,17770.54,95706.24,28587.195,9927.0,9932.0,14909.0,4967.5,0.0,0.0,0.0,0.0,0.0,19850.5,0.0,0.0,4565.23,9430.61,11515.88,198.52,0.0,49637.5,9931.0,0.0,9937.0,9941.5,0.0,0.0,298.26,35006.16,35299.2,0.0,70939.13,0.0,71687.56,17677.96,9932.0,0.0,0.0,0.0,29772.0,0.0,0.0,0.0,0.0,9939.5,0.0,21444.0,4370.08,0.0,993.6,0.0,39795.0,19893.5,103335.605,19893.5,19879.0,0.0,5964.3,0.0,298.215,3875.04,50564.06,0.0,0.0,0.0,9934.0,20668.37,4972.0,109110.59,49750.5,0.0,9938.0,9940.5,20179.17,0.0,19872.0,29813.0,0.0,3677.07,20370.05,30506.64,26039.08,795.31,19774.235,0.0,16995.39,465348.255,19861.0,280458.74,60577.55,304639.29
2019-04-09,0.0,27908.29,0.0,0.0,587.94,391.5,89745.23,27438.77,0.0,47493.6,9793.0,9786.0,0.0,9788.0,12637.74,4602.24,0.0,127156.61,73577.0,0.0,0.0,0.0,0.0,39276.0,0.0,9828.0,37717.64,36946.52,37464.25,9813.0,39256.0,19631.0,0.0,59674.05,1465.275,9774.5,50234.55,0.0,74450.52,0.0,68368.0,49858.05,122327.68,10557.88,39065.0,9777.0,0.0,19525.5,0.0,48912.665,39029.0,29282.0,0.0,9763.0,29023.96,17722.76,9804.0,9801.0,165859.8,9805.0,9797.0,10276.45,9778.0,0.0,0.0,0.0,0.0,0.0,29423.5,19571.0,0.0,9778.0,0.0,0.0,9762.0,9768.5,0.0,9768.0,9765.0,0.0,0.0,9753.0,0.0,0.0,0.0,0.0,9759.0,29547.65,19516.0,0.0,29323.0,0.0,0.0,9771.0,29331.5,0.0,0.0,0.0,29336.0,0.0,19525.5,29472.18,9753.0,14043.6,97.59,12596.85,19549.0,29918.74,29311.0,48823.0,39046.0,73871.43,9770.0,9770.0,48820.0,20013.125,0.0,9772.0,29326.0,9774.0,9771.0,30079.95,294.3,0.0,68600.0,59471.03,0.0,9807.0,9802.0,9812.0,0.0,19623.0,19631.5,0.0,35560.02,78601.0,16715.4,491.7,9833.0,0.0,108251.0,19701.5,22770.81,29577.0,143841.7,39474.0,0.0,2663.685,9866.5,29596.0,49355.0,39623.795,36156.48,19762.5,9885.0,19773.5,0.0,0.0,19790.0,9902.0,0.0,9901.0,19804.0,0.0,69406.49,39668.0,19836.0,0.0,59546.0,39985.69,36922.0,39698.0,9927.0,1984.2,9929.0,0.0,19865.0,19866.0,0.0,0.0,40124.2,0.0,19870.0,39753.0,29815.5,28827.365,9932.5,0.0,0.0,20370.85,39767.0,0.0,29828.0,19911.5,11044.665,9950.0,4876.235,19889.5,9939.0,116453.92,9931.98,89330.51,5852.8,29744.5,9909.0,31514.44,29724.0,0.0,0.0,69294.0,0.0,19798.0,0.0,19799.5,22267.25,9893.5,19788.0,20782.5,39607.0,0.0,19802.0,19814.5,29702.0,39600.0,9899.0,19797.5,9895.0,9899.5,19795.0,39568.5,9891.0,0.0,39561.0,39539.0,0.0,0.0,59308.0,9882.0,9884.0,0.0,19756.0,0.0,29611.0,29597.0,19731.0,19733.5,19732.0,19738.0,89556.97,69181.0,49437.0,9893.0,9893.0,9891.0,0.0,0.0,0.0,0.0,0.0,0.0,9887.0,19778.0,0.0,9886.0,29652.0,20157.4,0.0,9889.0,0.0,0.0,24726.5,4942.25,29647.5,0.0,20157.2,0.0,9879.0,0.0,0.0,29611.0,0.0,19722.0,9865.0,887.13,0.0,9873.0,0.0,19744.5,39487.0,9872.0,37514.4,20434.04,49357.5,0.0,29609.0,394.68,98697.5,19754.0,59271.0,0.0,19749.0,19754.0,49365.0,39487.5,69086.0,59210.0,9867.5,49328.0,9871.0,39485.0,49335.0,39462.0,39450.0,39444.335,10352.55,49266.5,39403.0,49224.0,39372.0,9846.5,19706.5,59121.5,59070.0,44033.41,11528.35,0.0,25412.21,39588.15,61289.615,9838.5,167066.9,72498.03,19699.0,59098.5,19709.0,98549.0,68941.0,49228.5,59091.0,19699.0,68959.0,29064.18,14779.5,29565.0,9853.5,19709.0,9949.54,9850.0,31305.74,9843.5,49153.5,72752.82,22917.55,9834.0,0.0,9833.0,9827.0,1179.0,78712.5,49204.5,39352.5,68928.0,19694.0,9849.0,69741.26,49272.5,39615.08,138110.57,29649.5,68999.0,41110.37,60645.15,206811.14,49297.315,197.2,49293.45,0.0,98682.0,19738.0,19736.0,70744.84,88799.5,118776.6,79217.48,78883.0,157640.0,160198.78,464855.75,217638.7,370469.635
2019-04-10,0.0,0.0,9903.0,19907.0,35819.765,0.0,0.0,0.0,0.0,0.0,9947.0,0.0,0.0,9967.0,60070.24,9963.0,29916.0,9978.0,59836.5,59851.5,110718.1,99677.5,9953.5,29877.0,31265.48,39403.62,19886.5,19890.0,52547.33,9934.0,7357.82,993.8,9942.5,9940.0,129033.0,10920.9,39747.5,59541.5,19825.5,19830.0,49580.0,19936.205,9924.0,79421.0,11008.55,39657.0,188311.5,0.0,49514.0,118931.0,168486.5,39658.0,0.0,0.0,13459.24,19791.5,22951.78,0.0,9889.0,0.0,0.0,59441.0,29704.0,19787.0,0.0,44351.04,19800.0,0.0,9883.0,10276.22,13834.1,32574.97,8819.9,99026.0,0.0,30641.1,19758.0,95282.08,9886.5,11457.32,19764.0,49377.5,9877.0,0.0,57529.86,30929.27,9894.0,9883.0,0.0,9887.0,0.0,32438.61,9888.0,89096.0,98997.45,5639.58,155139.995,89086.0,9901.0,9899.0,14542.945,35814.895,0.0,19768.0,19765.0,9891.5,33241.48,9883.0,19763.0,0.0,29631.5,59796.05,36863.05,50200.24,41430.91,19792.0,989.05,22535.72,14526.6,49421.5,9890.5,9895.5,9893.0,39591.5,10103.1,9897.5,19791.5,0.0,37367.08,1975.8,19767.0,39520.0,9883.0,9885.0,0.0,9887.0,10880.4,9894.0,0.0,29673.5,19771.5,88975.5,9883.5,9890.0,39592.0,19802.0,69319.5,19806.5,0.0,49532.5,79308.0,59800.01,29752.0,49590.5,19834.0,19846.5,9925.0,29807.0,10935.95,0.0,0.0,0.0,89517.5,20076.67,72983.82,19843.0,9928.0,0.0,19880.5,0.0,9955.0,39819.0,55429.36,9958.0,9953.0,9954.0,0.0,10939.7,19884.0,49689.0,9930.5,39720.0,0.0,36845.43,19861.0,0.0,993.2,0.0,0.0,9941.0,29817.5,19875.0,39748.5,9937.0,15497.04,9933.0,1787.94,59557.0,40693.8,19851.0,19849.0,9925.0,9927.0,89356.5,0.0,19850.0,0.0,12106.96,23411.35,0.0,69428.0,21418.72,594783.5,39657.0,49551.0,20330.875,0.0,9912.0,89993.38,20916.765,13294.9,0.0,5850.15,1072140.85,39680.0,152756.3,24285.35,10799.72,2379.54,9915.0,12693.71,8128.66,32692.01,0.0,9914.0,0.0,19819.0,9905.5,9893.0,0.0,0.0,0.0,0.0,5045.94,9896.0,13956.18,0.0,0.0,0.0,0.0,0.0,0.0,0.0,0.0,4750.56,9893.5,19787.0,0.0,0.0,19788.0,9895.5,10187.73,0.0,9887.0,9886.0,9882.0,9883.5,19866.34,10871.7,19760.5,19769.5,0.0,1384.04,0.0,253197.0,3556.44,0.0,0.0,9878.0,0.0,19747.5,0.0,0.0,29589.5,19722.0,10062.3,19721.0,20120.02,40934.75,2086736.01,27597.0,0.0,19708.0,0.0,9850.0,9853.0,29552.0,29547.0,0.0,68973.5,0.0,9851.0,1379.0,9841.5,9848.5,0.0,9856.0,9862.0,9860.0,19734.5,0.0,9871.5,0.0,0.0,987.0,0.0,0.0,59238.0,29630.0,9874.0,3653.38,0.0,9870.0,8289.96,0.0,21323.54,0.0,0.0,29614.5,19939.4,9871.0,43978.8,1385.02,9890.0,29709.5,29695.0,9898.5,11380.25,10389.775,10095.95,75068.57,9885.0,0.0,19770.0,19770.0,29655.42,0.0,18868.11,0.0,30307.04,0.0,29588.0,9869.5,12632.32,29607.0,59210.0,0.0,19757.5,19764.5,9883.0,9885.0,0.0,19769.0,19773.0,0.0,39526.5,19753.5,19757.0,12341.75,49360.5,49363.5,557971.445,113716.42,43006.9,69029.0,306674.13,237157.82,157749.0,19714.5,88637.895,29577.0,60030.31,54471.03,102715.62,79866.335,173090.26,98933.6,96127.0,157805.5,236100.055
2019-04-11,98.64,0.0,0.0,0.0,9790.0,9807.0,9809.0,3725.52,0.0,11480.58,0.0,0.0,1958.8,0.0,10809.1,9830.0,19754.0,70112.01,9891.5,0.0,9989.97,0.0,9905.0,99.05,9898.0,9891.0,9890.0,0.0,10885.0,49552.0,9916.0,0.0,0.0,0.0,11130.33,3079.23,29776.955,14679.34,0.0,99.15,19829.0,11402.55,0.0,992.5,19853.0,9943.0,6958.7,0.0,9952.5,9952.0,0.0,39891.5,19928.0,53413.12,39666.66,45424.4,15746.28,994.5,0.0,0.0,0.0,19885.0,19879.0,9945.0,9947.0,0.0,9937.0,0.0,0.0,9954.0,0.0,9958.0,60689.1,9944.0,4970.5,19894.0,109659.05,0.0,59610.0,9923.0,9929.0,31773.25,0.0,19851.0,17959.63,0.0,30695.7,29717.5,0.0,9896.0,19777.5,19781.0,0.0,39450.0,40661.9,19718.0,9859.5,2567.11,9881.0,0.0,19760.445,987.7,9886.0,9898.5,19811.0,29741.0,9912.0,0.0,0.0,0.0,20638.78,65595.36,9868.0,0.0,128179.13,50295.0,147952.5,19728.0,59148.0,9862.0,187235.5,19701.0,9857.5,19707.0,0.0,19710.5,153647.29,0.0,10337.25,29532.0,39229.0,30365.6,68665.0,9807.0,9813.5,76907.75,0.0,0.0,39295.0,0.0,0.0,19625.0,9706.95,167135.82,979.7,0.0,9813.5,19637.5,49054.0,0.0,19589.5,0.0,0.0,9800.0,0.0,68606.5,39224.0,9815.5,89233.8,0.0,55307.79,147051.5,9808.0,9810.0,9817.0,0.0,68658.5,264680.0,0.0,215798.0,0.0,88213.0,19598.0,0.0,10791.55,19618.0,58788.0,48911.0,39113.0,68390.0,58658.0,146651.5,0.0,19560.5,68425.0,19535.0,0.0,978.55,0.0,123596.495,49020.52,87685.15,0.0,9783.0,0.0,0.0,0.0,0.0,68682.0,19614.0,0.0,70045.925,19664.0,9827.0,9831.0,9840.5,0.0,0.0,0.0,0.0,29530.0,9849.825,0.0,9850.0,0.0,9846.0,985.0,0.0,0.0,19708.0,9850.0,0.0,3249.18,39373.0,0.0,0.0,0.0,20679.35,143703.5,0.0,10847.4,0.0,29610.5,187955.88,39565.0,9883.0,0.0,29565.0,39447.0,19751.5,29622.0,0.0,29595.0,0.0,9878.0,988.1,19741.0,9864.0,0.0,0.0,0.0,0.0,24540.705,9854.5,0.0,19717.0,9864.0,0.0,19765.0,10879.5,9889.0,19780.0,0.0,0.0,0.0,19777.0,0.0,177957.0,144853.2,9887.0,0.0,0.0,0.0,988.45,0.0,0.0,0.0,296.595,0.0,0.0,0.0,0.0,0.0,9898.0,0.0,0.0,2178.22,0.0,990.25,0.0,0.0,19779.09,29644.0,9880.0,0.0,0.0,0.0,0.0,14833.5,0.0,0.0,0.0,9891.0,988.7,593.22,0.0,0.0,0.0,0.0,0.0,13526.01,0.0,0.0,0.0,0.0,0.0,9882.5,0.0,20757.3,21746.1,23128.43,0.0,0.0,19778.5,0.0,19750.5,20725.05,0.0,0.0,0.0,69073.0,0.0,987.25,9873.0,0.0,9891.0,0.0,0.0,0.0,19770.0,0.0,5732.14,0.0,1185.84,0.0,0.0,24823.995,13853.4,9891.0,0.0,0.0,0.0,0.0,0.0,0.0,9881.0,9878.0,0.0,0.0,0.0,987.7,0.0,0.0,0.0,0.0,0.0,21636.39,9878.0,1383.06,9878.0,0.0,0.0,29625.0,11849.4,9871.0,16485.68,9873.0,88821.0,51440.71,116545.08,19765.5,49219.32,20852.85,29954.565,69242.5,9893.0,29687.0,20274.45,87552.2,160476.48
2019-04-12,102184.75,100245.82,20537.5,10303.0,9694.22,67074.0,111995.59,30945.0,218351.475,0.0,0.0,31102.5,83279.07,31154.5,31127.0,10388.0,726.18,15360.0,218047.265,144840.49,124253.0,113926.0,0.0,10371.0,114135.5,41518.5,379749.55,10358.0,10342.0,26056.4,51812.42,101378.52,31785.97,30871.0,10290.0,30876.0,1027.4,9962.87,30803.0,164417.0,72081.0,0.0,20592.5,20581.0,205.8,4938.24,10288.0,0.0,82194.0,82522.78,30828.0,43731.44,92682.95,30967.0,34830.95,33081.68,127875.07,11375.65,0.0,10338.0,10316.69,125020.7,51667.5,143410.075,30952.0,5151.12,3088.2,5253.51,51515.0,0.0,20546.0,20538.0,51355.0,92389.0,30804.0,81294.755,30866.0,10277.0,10268.5,10275.0,51420.5,41135.0,0.0,41170.04,0.0,10303.0,20578.0,10297.0,0.0,10499.99,0.0,2678.39,2778.3,20612.0,10301.0,0.0,61692.5,95057.375,13367.7,10290.0,0.0,0.0,0.0,0.0,10289.0,0.0,0.0,10285.0,20774.66,0.0,20560.5,51403.0,20577.0,30867.5,10295.0,31169.64,0.0,10295.0,41172.5,20586.0,10290.0,20577.0,10287.0,308.7,0.0,0.0,0.0,10292.0,0.0,10300.0,1029.25,0.0,0.0,10292.0,20596.0,0.0,0.0,20589.0,0.0,11109.42,0.0,20615.0,10310.0,10330.0,17556.0,21892.88,30998.0,0.0,0.0,10339.0,10335.0,0.0,16023.77,60135.33,20658.5,10337.5,24163.86,20660.0,31013.0,31024.0,2068.0,2893.24,10332.0,10332.0,0.0,20659.0,11885.6,20679.0,20680.0,20897.88,0.0,10343.5,20673.05,10327.0,10322.0,0.0,1859.22,10325.0,134260.5,10334.0,0.0,268931.0,2069.1,0.0,0.0,0.0,10334.0,413.56,10345.0,20082.6,279678.0,31118.5,62252.0,94454.3,83086.5,20792.0,33780.5,10394.0,72782.5,0.0,20807.0,72797.5,27264.72,72834.5,72923.5,97817.78,41098.11,136116.24,271596.0,0.0,10462.5,41880.0,69225.595,198994.5,11526.7,0.0,20837.655,20946.1,9414.0,75761.31,32158.68,15294.96,55653.08,188745.98,52344.785,10464.0,21047.7,20942.5,10474.5,73343.5,28704.11,55203.565,20952.0,51014.04,52409.5,116436.95,139408.77,108244.69,825247.78,43578.725,140698.9,21436.26,21019.44,21424.76,42105.67,57890.185,58574.875,12629.1,15785.52,21171.34,33215.175,31427.12,26373.5,182826.5,18676.04,22172.0,31599.0,21247.4,28604.24,63133.5,25282.0,42145.0,63224.0,98876.12,0.0,28998.5,31637.0,42169.0,26163.45,52779.0,39059.2,52789.0,84534.0,63422.0,42286.0,42531.52,52878.5,31705.5,42287.5,95180.45,21664.8,54988.29,15336.65,245009.67,197673.315,61277.25,116774.015,77392.6,32027.16,63587.5,63558.5,73991.5,79567.25,59619.72,98434.01,31791.08,46344.62,21091.5,21098.0,160186.245,74081.0,10598.0,0.0,10577.0,13755.2,80227.75,21166.5,10567.0,10568.0,52774.0,179927.55,64735.58,31610.0,21051.5,84177.5,94621.5,84319.34,136708.0,31549.5,80054.12,21022.5,21577.7,105164.0,388848.5,105751.545,100260.87,30183.92,10517.5,84159.5,10533.0,21060.0,16561.4,21119.0,0.0,99404.6,105766.0,7408.45,10579.0,38243.085,22887.05,21204.0,10601.0,167368.415,38785.6,21258.0,0.0,744.065,0.0,10624.0,31822.0,10607.0,13124.24,98245.04,43649.04,10561.0,0.0,24489.33,114600.325,23227.6,37123.21,107264.2,22598.26,21117.0,36977.0,235105.75,10563.0,0.0,105481.5,94954.0,42198.0,129843.66,63288.0,52745.5,10546.0,105428.0,16547.8,55011.3,65239.23,74887.015,63203.5,31590.5,21062.0,15582.4,27249.91,73660.0,21062.0,87277.04,116258.825,278887.05,353698.085
2019-04-15,0.0,0.0,28394.45,43350.46,11819.58,99759.36,10338.0,69389.51,20686.5,33989.76,0.0,10352.0,0.0,30867.0,10292.0,71968.0,72031.0,64758.76,68298.92,83657.595,21623.6,63643.59,102936.75,73003.9,41222.5,72172.5,67816.64,99583.17,51777.0,41404.5,103417.5,93295.385,95372.34,51860.5,103694.76,62193.0,41489.0,20716.0,10380.0,32026.03,20711.0,0.0,41405.0,10348.0,0.0,12204.13,13461.65,10461.505,18718.37,3618.52,31004.0,61999.0,92990.5,217520.45,73292.46,20660.0,62570.71,51647.5,10319.0,92829.5,92962.35,14405.79,144101.32,51383.06,10285.0,71889.5,82164.0,10283.0,52369.55,71854.5,46698.23,10464.61,20733.28,71755.0,0.0,0.0,11273.8,20485.0,71672.0,38201.025,33326.5,10256.0,30773.0,106714.575,21742.54,184771.0,10262.0,10257.0,21022.775,243618.145,82132.5,20500.5,511.95,10230.5,0.0,51128.5,59295.5,71572.0,10233.0,20475.0,0.0,0.0,23697.67,10245.0,102460.0,62321.92,189170.98,100208.4,21039.9,48989.1,510.75,11840.29,20411.0,0.0,20934.6,20397.0,0.0,356975.5,20390.0,5106.0,0.0,0.0,0.0,153711.81,10636.66,0.0,0.0,5116.0,10237.0,0.0,343728.145,62021.34,0.0,51405.82,71723.0,75680.6,0.0,276827.0,89641.06,36725.7,40920.5,52361.44,191293.415,22207.63,10234.0,8483.43,10235.0,30705.0,81892.5,38358.75,50391.065,0.0,30639.5,40852.0,10215.0,143108.0,7369.86,30673.0,10227.0,55247.2,0.0,20445.0,15334.5,10215.0,26570.1,11036.22,45976.0,16768.1,32683.6,26550.8,2044.0,0.0,0.0,0.0,10215.0,9193.5,11334.645,10211.5,1021.0,0.0,10517.315,0.0,10205.0,0.0,0.0,0.0,0.0,0.0,20824.88,0.0,10216.5,5106.5,19418.4,0.0,0.0,10204.5,20426.0,0.0,10212.0,11237.48,16454.11,10213.0,30638.0,10211.0,0.0,0.0,204.36,0.0,10219.0,0.0,40894.0,0.0,20756.75,33565.54,0.0,23524.5,818.4,10227.0,10225.0,0.0,10215.0,0.0,0.0,21647.75,10312.08,0.0,0.0,39093.055,22549.13,10209.0,10208.5,15323.25,16244.735,0.0,0.0,55240.0,20450.0,1329.51,0.0,30704.0,0.0,10241.0,37663.66,40939.5,48295.46,10232.0,40924.0,10237.0,29187.59,51221.0,10237.0,92166.5,40984.5,0.0,6144.0,20482.0,10246.0,0.0,0.0,0.0,51733.15,0.0,71691.0,16395.4,0.0,0.0,10241.5,45545.075,0.0,35009.83,30742.0,10250.0,0.0,30750.0,0.0,0.0,10756.175,22027.25,0.0,40973.0,10654.8,26628.3,0.0,10246.0,51223.655,0.0,11068.34,19063.14,0.0,24492.72,88626.25,562411.9,51175.5,0.0,30691.5,0.0,0.0,0.0,0.0,10222.0,10223.0,5308.16,4898.27,0.0,0.0,0.0,0.0,26074.975,10182.0,10285.85,10168.0,50816.0,25381.0,136923.5,20298.62,30447.0,0.0,0.0,40618.0,50751.0,20291.5,30480.0,30487.65,10170.0,10170.0,60392.99,0.0,40690.0,0.0,20341.5,0.0,9967.58,10171.0,30528.0,20341.0,0.0,32677.25,0.0,10172.0,10168.0,20355.5,0.0,0.0,10166.0,0.0,0.0,10174.0,30498.0,40670.0,0.0,10171.0,0.0,10168.0,0.0,40968.95,20542.46,10169.0,0.0,10170.0,223646.5,187418.96,223765.5,142568.8,93798.04,183154.5,122093.0,789264.21,71221.0,36637.15,27280.42,27684.88,30539.5,101788.955,14852.58,81363.0,42075.21,46176.34,20356.0,173183.165,191715.785,321192.485,50951.0,172150.99,51178.88,449704.17,927675.535,1096468.69,275640.09,460271.695,497422.66
2019-04-16,0.0,20397.0,80002.05,20372.0,50962.5,62534.18,10167.0,10156.0,10146.5,30437.0,10157.0,10128.0,10125.0,40526.0,30432.0,10142.0,50814.5,40682.0,0.0,21708.46,60750.5,0.0,0.0,80959.5,102617.81,20268.0,20265.0,0.0,10131.0,10129.0,502887.7,750207.5,111576.5,50736.5,37652.15,101430.5,131046.58,103210.84,162292.0,202.88,91316.5,20294.0,9872.66,61035.5,0.0,73265.48,20521.1,40620.5,20303.0,40618.0,60663.13,33245.82,20339.5,0.0,30508.0,50864.66,61012.5,71269.5,21899.65,81624.24,24299.8,10204.0,10195.0,20385.0,40765.5,10192.5,30595.0,20404.0,20400.0,30695.91,40792.5,71407.5,78754.56,30601.13,50978.5,71328.0,81521.0,10190.5,40754.0,0.0,54976.5,30536.0,0.0,40766.0,40776.0,50930.5,50938.0,0.0,20366.0,27335.78,10163.725,20318.0,5382.68,0.0,24561.27,0.0,709.87,0.0,0.0,45627.5,30446.0,12094.96,10165.0,0.0,0.0,20372.0,0.0,914.76,5591.575,11580.48,3249.76,20303.5,29661.55,1524.0,101541.5,20295.5,10155.0,31989.325,30466.0,50792.0,0.0,90609.28,0.0,10361.16,92437.9,40637.5,10162.5,10159.0,10157.0,50766.5,0.0,10159.0,0.0,0.0,0.0,0.0,10168.0,5692.4,10171.0,0.0,10184.5,20375.0,20380.0,63208.98,112151.5,30586.0,112223.0,336747.0,61227.0,0.0,75917.5,103386.04,166061.72,81629.0,335343.74,106803.1,96647.9,153241.5,30647.5,10210.0,51041.5,175096.35,204.22,0.0,0.0,71468.0,20431.5,30651.5,51080.0,30656.5,0.0,73134.9,3370.68,173538.0,30578.0,0.0,8772.86,10198.0,0.0,612.12,9590.82,0.0,11534.8,10213.5,21455.35,19517.27,20438.0,1328.08,0.0,20512.035,10101.96,30608.0,20409.0,41739.54,0.0,510.5,19913.975,20429.0,0.0,0.0,10210.0,10207.0,10208.0,316118.2,20398.0,0.0,0.0,0.0,4284.0,10197.0,0.0,0.0,10202.0,20400.0,20407.5,0.0,20417.0,0.0,0.0,0.0,20408.0,20407.0,10203.0,10202.0,20394.0,0.0,0.0,0.0,151273.415,10203.0,30619.0,2858.38,0.0,32539.595,10203.5,40700.94,10200.0,20393.0,10196.0,0.0,0.0,0.0,0.0,10296.99,10195.0,10193.0,0.0,81497.12,20380.0,10194.0,20695.88,10196.5,0.0,8661.5,0.0,67452.09,61132.0,20390.0,3569.33,90310.85,0.0,45921.25,31223.27,40819.5,10303.465,20385.5,40768.0,40771.0,50956.0,30576.5,50959.5,81609.41,30576.0,51376.92,30561.5,122333.5,163199.5,142813.0,71410.5,31537.31,20414.0,0.0,41470.96,71510.0,40862.0,30656.0,20451.49,30688.0,51170.5,166843.6,10247.5,10248.5,51273.75,0.0,0.0,12212.9,30811.0,26094.72,0.0,30823.5,20557.0,20535.5,0.0,0.0,0.0,0.0,19296.32,0.0,0.0,0.0,10273.0,0.0,0.0,0.0,10258.5,0.0,0.0,0.0,30757.0,20504.0,0.0,20515.0,0.0,0.0,0.0,10255.0,92301.0,51281.0,0.0,0.0,0.0,0.0,30755.0,10249.0,20491.5,30732.0,51221.5,102.43,14753.465,2972.79,43980.79,30748.485,20496.5,30740.0,41000.5,25627.295,41506.05,30734.135,51216.5,30711.0,92131.0,14843.325,10235.0,20481.0,10243.0,47937.24,22432.17,30826.945,30736.0,307.47,2050.1,22452.02,20529.0,76924.09,10249.5,61458.0,10247.0,40983.5,40952.5,10234.0,81844.5,10237.0,51163.0,10236.0,30686.5,61398.0,20472.0,30686.0,10235.0,71609.0,122754.5,112504.5,51133.5,63041.86,68887.26,44112.815,114247.43,215382.98,98783.99,306867.305
2019-04-17,20606.0,43314.125,82878.0,41493.0,62172.0,24040.16,0.0,0.0,10348.0,49975.08,0.0,0.0,31102.5,20739.5,62351.0,0.0,0.0,0.0,0.0,0.0,0.0,10384.0,0.0,0.0,0.0,0.0,519.45,0.0,10389.0,0.0,9368.1,0.0,31199.0,23946.3,12095.24,10442.0,10421.0,20855.0,0.0,10393.0,10387.0,0.0,10365.0,51868.5,20756.0,9953.28,0.0,80227.32,144058.005,113802.5,282204.375,153454.1,207365.0,47497.12,29879.24,0.0,20758.5,20760.0,31115.0,11213.48,62271.5,41561.5,0.0,20766.0,41037.6,31193.5,31199.0,10379.5,31454.7,17144.45,41547.0,21072.37,518.35,1658.56,10359.0,20711.0,41429.0,0.0,10357.0,1657.76,310.5,10350.0,20694.0,27423.2,10347.0,73814.195,10345.0,62058.0,0.0,51622.5,7219.8,0.0,0.0,10318.0,82564.0,103314.78,10339.0,41399.5,82810.0,93194.5,134535.0,103535.5,41406.0,112592.45,41322.0,20684.025,41377.0,57400.65,92998.0,175626.5,51693.5,36697.025,31006.0,51736.0,62068.0,36196.44,20684.0,20686.0,10336.5,0.0,72613.9,20653.0,30958.0,88246.0,20623.0,15376.8,20656.0,30990.0,72478.46,6810.54,0.0,0.0,61891.0,10323.0,11350.0,20636.0,75473.24,20620.0,40417.12,67149.845,29001.82,10300.0,0.0,64499.04,51520.0,31023.585,41185.0,102925.5,61712.0,20580.0,52765.135,391007.0,13458.87,20540.0,30798.5,10261.5,260442.32,51388.5,20564.0,32892.2,308.145,0.0,0.0,61600.0,10260.0,0.0,20517.0,20527.0,86867.025,30823.0,41105.5,20543.0,12827.0,10264.0,22567.7,30774.0,41064.0,4619.025,51342.5,10983.83,20541.0,616.32,10273.5,82126.5,24129.8,0.0,3797.68,0.0,3077.7,0.0,10237.0,10228.9,53591.62,76975.28,20474.0,0.0,0.0,0.0,10242.0,11480.0,30766.5,20511.0,10254.0,0.0,0.0,20514.0,30770.0,10255.0,10245.0,0.0,0.0,10244.0,10239.0,0.0,10244.0,0.0,20500.0,0.0,10241.0,0.0,512.3,0.0,20381.58,10237.5,20477.0,0.0,0.0,82531.865,0.0,41053.5,0.0,10259.5,84891.47,10270.0,30801.0,61602.5,0.0,183223.4,0.0,20569.5,0.0,20567.0,20563.0,10275.0,0.0,41124.0,20354.38,205.62,0.0,1028.0,4626.0,0.0,28590.8,102.8,51904.07,10376.74,10268.5,10263.0,0.0,10261.0,10251.0,0.0,62492.8,0.0,0.0,512.7,10461.14,20518.0,20512.0,51285.0,0.0,10257.0,0.0,10247.0,0.0,0.0,30756.0,0.0,20510.0,0.0,20489.0,20477.0,0.0,10234.5,0.0,10229.0,42981.0,0.0,10232.0,10233.5,20456.0,20447.0,20443.0,10220.0,10210.0,0.0,10199.0,10211.0,10211.0,0.0,10205.0,0.0,10206.0,10208.0,13566.66,20396.0,0.0,10187.0,0.0,20357.0,10178.0,20345.0,10182.0,10176.5,28088.28,0.0,0.0,10180.0,31651.525,30528.0,10178.0,50908.0,0.0,0.0,0.0,17194.905,20348.0,0.0,20338.0,14230.3,30507.0,10170.0,0.0,20861.8,0.0,10176.0,10172.0,0.0,31639.025,16776.225,10157.5,20315.0,10663.8,39096.1,30486.0,30467.59,30545.98,10145.0,10152.225,0.0,10158.0,20315.5,30493.0,0.0,15239.25,6299.2,0.0,60928.0,0.0,0.0,10173.0,10167.0,10166.0,20327.5,10165.0,48807.2,10167.0,19838.3,0.0,30531.0,0.0,9885.33,50939.0,30555.0,35041.22,51578.46,58694.18,102371.35,20382.0,26312.84,10201.0,30601.0,0.0,50920.5,101865.0,77786.26,23413.0,173939.44,154276.44,177271.71
2019-04-18,0.0,0.0,0.0,0.0,0.0,10207.0,30511.0,50809.0,0.0,35334.18,40747.5,50964.5,61190.5,20424.0,51089.0,10206.5,30614.0,30618.0,215257.04,115214.36,10228.5,20434.0,10218.5,10222.0,0.0,30616.0,22055.28,132834.0,41005.77,10233.0,30695.5,303260.4,0.0,20425.0,0.0,30672.0,10224.0,1432.76,0.0,1228.2,40970.0,10241.0,0.0,10241.0,10247.5,20500.0,10253.0,0.0,0.0,0.0,0.0,30730.0,0.0,41003.0,0.0,10251.0,40996.0,20508.0,0.0,10262.0,51219.845,0.0,61619.5,30814.5,10267.0,20537.0,0.0,20538.0,0.0,0.0,1027.4,0.0,0.0,17352.92,30823.5,0.0,0.0,0.0,308.73,10297.0,82333.0,30871.0,0.0,0.0,10288.0,20590.0,20595.0,0.0,20611.0,41241.0,0.0,10318.0,10319.0,0.0,10308.0,0.0,0.0,0.0,10315.0,1547.925,7022.02,10317.0,10324.0,20640.0,41227.0,30922.5,14415.0,514.9,10306.0,412.32,0.0,0.0,0.0,0.0,0.0,0.0,10323.0,0.0,30964.0,0.0,20692.0,20701.0,0.0,10364.5,10360.0,0.0,0.0,0.0,10371.5,0.0,0.0,31124.0,10374.0,0.0,20744.26,0.0,0.0,10366.0,10362.0,724.99,1242.84,31083.0,0.0,10351.0,0.0,0.0,0.0,0.0,0.0,0.0,10372.5,67535.0,0.0,0.0,0.0,41610.5,0.0,0.0,0.0,0.0,0.0,0.0,0.0,10393.0,1038.8,0.0,20755.0,0.0,10374.0,0.0,0.0,41513.0,0.0,0.0,0.0,41521.5,0.0,0.0,31158.5,20768.0,0.0,10381.0,0.0,10586.58,10384.0,0.0,0.0,31122.0,41781.465,10368.5,0.0,10369.0,1036.7,0.0,0.0,0.0,10383.0,10391.0,10390.0,0.0,0.0,0.0,0.0,10407.0,0.0,0.0,0.0,0.0,0.0,10404.5,0.0,10408.0,0.0,0.0,0.0,0.0,20848.0,10417.0,0.0,0.0,0.0,10418.0,0.0,0.0,0.0,10420.0,0.0,20838.0,5104.33,0.0,10420.0,0.0,0.0,0.0,0.0,0.0,10319.76,0.0,0.0,0.0,11145.05,0.0,0.0,104220.0,0.0,0.0,0.0,20845.0,20634.07,10425.0,0.0,0.0,0.0,0.0,0.0,20825.0,0.0,0.0,47859.4,0.0,22266.27,52044.0,0.0,10403.5,31205.5,0.0,0.0,0.0,0.0,11132.815,0.0,10417.0,20835.0,0.0,0.0,0.0,20783.0,0.0,10389.0,0.0,0.0,51913.5,0.0,0.0,0.0,0.0,830.0,0.0,0.0,51886.0,9336.6,0.0,0.0,20756.5,0.0,10376.0,31120.0,0.0,10382.0,0.0,0.0,22012.2,0.0,20772.81,0.0,31813.28,831.68,0.0,20783.5,0.0,31176.0,10389.0,0.0,0.0,10393.0,0.0,832.08,0.0,301341.5,10391.5,10383.26,18159.37,0.0,10363.0,10365.0,0.0,0.0,0.0,31110.0,0.0,0.0,20731.0,0.0,0.0,310.41,0.0,0.0,10955.64,0.0,31089.0,20731.0,10369.5,0.0,10378.0,0.0,29083.3,10383.0,51958.0,10385.5,10384.0,0.0,10398.0,10404.0,21529.56,10402.5,10410.0,0.0,0.0,13732.96,10416.0,343499.5,120004.51,98659.155,64718.6,21653.22,10416.0,20823.0,79366.915,14982.08,20821.0,10410.0,0.0,20817.0,11140.91,41681.0,41970.54,15108.55,33767.16,19288.1,0.0,83372.0,20830.5,21231.24,64513.0,11444.1,81621.65,50734.38,66107.015,124656.0,206302.28
2019-04-22,6316.2,36035.88,1265.04,42168.0,0.0,21138.0,24192.88,15526.01,68818.82,95914.75,21142.5,10563.0,0.0,10549.0,39778.26,0.0,4213.2,0.0,10522.0,10511.0,10492.0,0.0,26291.57,62853.5,31462.0,41947.5,10490.0,10492.0,0.0,20966.5,10483.0,10493.0,0.0,31477.5,21006.0,5251.5,32703.21,21051.5,10521.0,31569.0,42100.0,69080.47,31539.5,31525.0,10517.0,10507.5,10510.0,15032.875,6098.7,23980.76,31581.15,84252.0,28456.2,20546.1,21071.0,47511.38,42194.0,32126.24,32141.84,295354.26,148147.5,42832.95,41768.35,232613.5,15295.325,31602.0,21090.5,63260.5,10549.0,42150.5,155183.72,21043.0,12427.01,0.0,0.0,0.0,0.0,0.0,21102.0,0.0,10567.0,0.0,21150.5,34826.23,0.0,52892.73,0.0,10585.0,21147.5,52884.5,0.0,0.0,10552.0,10548.5,0.0,1369.42,18642.41,0.0,0.0,10556.0,12988.8,6869.2,15863.0,10573.0,0.0,10570.0,0.0,10562.0,0.0,42777.0,11839.02,0.0,21124.0,0.0,10572.0,31721.0,0.0,0.0,9299.84,21147.0,10581.0,10797.75,38727.12,10575.0,19253.46,275183.62,1194587.625,122239.45,42362.0,592236.54,106.075,63653.5,21205.0,10607.0,10397.8,10606.0,715795.3,174089.25,0.0,0.0,21212.0,101094.24,291252.73,1070035.04,936090.365,218797.38,855152.22,2416985.65,841405.48,117030.32,31916.5,10640.0,21277.0,10639.0,31933.0,31943.0,53219.5,42594.0,21320.0,74648.0,10777.69,21869.645,11737.4,18779.53,10671.0,32994.24,0.0,21684.55,3526.05,21366.0,21361.0,38315.25,10665.0,0.0,10673.0,0.0,10776.69,25387.22,25088.3,32038.0,10681.0,32809.02,42747.5,32073.0,43632.02,10690.5,0.0,0.0,22895.42,10808.995,0.0,0.0,0.0,0.0,10704.0,17017.76,10701.0,10705.0,0.0,5138.88,0.0,10711.5,0.0,10704.0,0.0,21395.0,2243.43,0.0,0.0,10693.0,10691.0,10696.0,19045.78,32125.0,76275.44,10709.0,10714.0,53558.0,74975.0,10724.0,0.0,3212.8,0.0,0.0,32627.425,21403.0,10711.0,21426.0,10714.5,10704.0,0.0,0.0,0.0,32108.0,21402.0,21405.0,10707.0,22274.76,10710.0,64257.0,749.385,0.0,0.0,21419.0,10710.0,21402.0,0.0,0.0,10711.0,0.0,32147.0,0.0,0.0,42877.0,44736.43,53622.0,0.0,0.0,0.0,0.0,10727.0,10720.5,0.0,10724.0,0.0,42892.5,21440.0,10711.0,17986.535,21411.0,0.0,0.0,21927.85,0.0,0.0,0.0,21387.0,641.7,0.0,0.0,0.0,10690.0,10680.5,0.0,0.0,0.0,21356.0,0.0,0.0,10678.0,0.0,0.0,10667.0,0.0,0.0,0.0,53302.0,0.0,11191.9,21328.0,0.0,21327.0,0.0,0.0,10660.0,0.0,10650.0,0.0,10640.0,10629.0,0.0,154690.0,0.0,0.0,53278.0,31964.5,0.0,32709.49,10658.0,31971.5,22913.62,32625.63,0.0,21337.5,85398.5,21349.0,170810.5,171478.83,53367.5,106745.0,74715.5,106751.5,53390.0,53713.31,21348.5,32004.0,96049.5,85414.5,13345.25,32121.74,32014.5,10665.0,0.0,0.0,10981.92,10662.0,31993.0,85318.0,80628.15,30830.34,10666.0,42658.0,0.0,32015.0,0.0,32223.89,10671.5,68282.8,0.0,128090.0,0.0,2242.16,21371.0,139431.2,32065.0,66908.77,149848.29,215421.24,117525.0,96172.0,85517.0,1496.04,10687.0,854.96,0.0,157816.96,22766.52,52051.43,74829.0,32074.0,64184.0,32092.5,64174.5,105702.34,107016.0,214839.53,64991.7,188100.86,310997.25,470493.905
2019-04-23,10699.5,12589.89,0.0,10700.0,0.0,21433.0,27611.22,10748.575,21446.0,0.0,21367.0,0.0,0.0,32040.5,0.0,3851.28,96298.0,85609.0,0.0,21379.0,10675.5,10645.0,10643.0,12120.36,36517.36,21247.0,11990.28,52916.84,59588.04,63690.0,10611.0,21214.0,0.0,22281.8,153626.845,50544.2,74317.0,42415.0,0.0,10606.0,0.0,42402.0,0.0,105910.0,42341.0,137453.275,163057.67,15531.285,51962.58,0.0,31641.0,147701.0,0.0,0.0,56746.24,10601.0,22260.0,0.0,0.0,4141.02,21228.0,21244.5,12749.6,0.0,31917.0,1700.96,10640.0,0.0,10639.0,0.0,10644.0,10659.0,74611.5,31988.5,0.0,31991.0,21325.0,21322.0,10659.0,10653.0,31969.5,149226.5,37389.29,106725.875,10674.0,30525.64,0.0,0.0,32055.0,0.0,21378.0,0.0,32101.0,0.0,10717.0,0.0,0.0,21406.0,0.0,10706.0,3430.08,21438.5,10722.0,0.0,21452.0,10738.0,0.0,32164.0,0.0,0.0,0.0,21438.0,0.0,14116.4,149682.0,0.0,0.0,32054.0,10683.0,32049.0,21360.0,32061.5,42743.0,0.0,0.0,21328.5,10665.5,31979.0,53329.5,54964.915,43979.105,96561.19,10673.0,10663.0,0.0,32014.0,54631.26,64028.5,21334.5,85368.61,746.69,256299.5,21366.0,46202.68,21393.5,10708.5,1712.8,162103.05,107022.0,82240.16,74979.5,85027.02,43038.58,0.0,64236.0,21437.0,24988.92,171755.0,10741.0,64397.0,128827.0,32194.5,43063.37,64443.0,129133.47,43027.5,52033.0,0.0,10736.0,32314.36,42948.5,42912.0,11163.8,0.0,33813.1,21471.0,32244.0,43007.0,12255.57,22774.28,0.0,21484.0,75171.5,32215.0,21453.0,0.0,54711.9,10747.0,10759.5,53810.5,32268.0,65211.72,94669.4,116576.25,75239.0,86018.0,21519.0,21536.0,42998.0,102186.0,10759.0,22184.02,32313.0,36631.44,61077.1,33031.98,47932.0,21558.0,53870.0,21533.0,146295.35,139900.0,43048.0,43075.5,11091.1,86210.66,43042.0,215.21,129090.0,64521.0,96886.54,43001.0,247360.0,425095.92,516420.0,10756.0,75288.5,96812.0,161605.19,102227.0,32284.5,139878.5,53997.12,76219.97,193238.5,118043.0,10720.0,85835.0,10734.0,32197.5,80522.53,12120.03,0.0,0.0,53659.0,21474.5,78914.6,21481.0,48764.27,53707.5,75179.0,85912.5,64434.5,21476.0,161116.5,654675.0,107369.0,42962.5,32227.0,64468.5,311720.5,42997.5,75241.0,21500.0,214.98,10754.0,21503.0,0.0,10754.5,97223.28,63027.58,191665.42,57868.44,93274.86,43034.0,32303.0,64614.5,86159.0,10770.0,86149.5,21557.5,81822.97,86224.5,43129.0,86242.5,75449.5,297503.69,118587.5,53922.5,53915.0,161718.0,421620.835,388049.0,43637.4,118181.0,507034.575,102946.31,234132.105,10748.0,0.0,0.0,32201.0,42932.67,42921.0,21672.62,64374.0,21448.0,32180.0,64350.0,85802.0,53616.0,42895.0,42879.0,0.0,27134.25,240364.84,0.0,32168.0,21442.5,53595.0,0.0,11140.4,149939.0,171271.5,10704.5,64214.5,21410.0,42846.5,85716.5,107103.5,85644.0,10691.5,32043.0,85441.0,10680.0,32045.0,87045.85,0.0,64640.225,42696.0,32039.0,42759.0,53430.0,65592.26,74823.0,620605.5,10692.0,11230.79,32078.0,42744.0,10691.0,10689.0,32063.0,42773.0,21604.92,42772.0,32082.0,21384.5,64786.97,85731.3,75823.51,21387.0,96783.11,45340.34,534.625,43309.225,32081.0,10699.0,21929.9,54553.7,75417.925,203711.1,32622.2,54110.22,32084.0,74912.93,121761.925,213490.0,182337.935,175453.15,42963.24,89701.395,136478.99,96196.5,311410.595,195553.9,145637.035,168817.095,322166.1,332082.05
2019-04-24,33934.94,0.0,10820.005,0.0,44327.43,42278.17,17226.77,4602.29,20078.28,2129.6,33560.37,31849.0,21360.32,84978.0,10605.0,109421.7,37707.84,64993.02,73234.39,2438.0,21193.0,10597.0,180487.0,95563.0,11993.95,84925.0,8591.4,128683.47,0.0,0.0,0.0,0.0,0.0,10532.5,51993.61,31534.0,10509.0,4826.84,17322.55,44858.35,186058.52,29081.77,539587.385,115872.68,0.0,1156.87,16110.135,3053.99,0.0,1370.07,76660.73,42277.5,6345.3,12472.12,10576.54,0.0,0.0,3495.36,0.0,0.0,0.0,0.0,10581.5,0.0,24780.46,0.0,0.0,0.0,0.0,21195.0,0.0,10565.0,27651.04,31727.91,21109.0,42246.0,21136.0,31725.0,8043.08,0.0,10573.0,0.0,21105.0,150555.83,42207.0,0.0,10554.0,32711.0,187490.0,90624.5,21101.0,50011.0,10550.0,144249.675,31660.0,10553.0,93802.335,0.0,252356.0,56231.675,42209.0,21105.0,0.0,31661.0,42220.0,85036.5,10551.5,66467.0,85141.535,42202.0,74694.0,217330.0,10551.0,21102.0,0.0,42202.0,10553.0,12029.645,21112.0,10568.0,0.0,21125.0,1056.35,0.0,0.0,21126.5,4228.4,10555.0,21118.0,21117.475,0.0,21107.0,0.0,84550.96,0.0,0.0,21134.0,0.0,0.0,21100.0,0.0,0.0,0.0,0.0,0.0,0.0,10558.0,0.0,0.0,0.0,0.0,2218.965,10563.0,42228.5,31672.12,0.0,10559.0,0.0,0.0,0.0,10558.0,5909.68,15200.64,0.0,0.0,10556.0,0.0,0.0,0.0,0.0,0.0,0.0,10549.0,10565.0,21131.0,0.0,0.0,0.0,0.0,0.0,26058.5,0.0,0.0,0.0,0.0,9284.44,43244.6,0.0,38401.5,10548.0,0.0,0.0,0.0,0.0,0.0,0.0,10553.5,0.0,0.0,0.0,0.0,0.0,0.0,0.0,21117.0,0.0,10559.0,0.0,63338.0,52848.0,52899.5,10572.0,10567.0,0.0,0.0,0.0,0.0,10551.5,0.0,105.52,0.0,0.0,0.0,21092.0,10543.5,21095.0,0.0,0.0,0.0,10548.0,0.0,24479.32,0.0,10551.0,0.0,0.0,0.0,63297.0,50198.82,84348.5,31616.0,736.26,0.0,0.0,5154.8,8942.0,5360.1,10509.0,13237.32,0.0,31504.0,21851.48,84022.0,21003.0,8927.975,0.0,134690.445,0.0,0.0,0.0,0.0,0.0,0.0,17639.16,10501.0,26878.79,209.99,12388.18,10504.0,21945.0,26143.755,0.0,10510.0,21030.5,45196.65,28096.41,31564.0,0.0,0.0,842.24,9685.76,28431.2,2842.29,21565.725,7675.95,11883.645,7683.98,0.0,4525.965,21065.0,12312.97,56907.77,0.0,22203.02,0.0,0.0,1367.6,841.68,21256.38,21777.97,11469.0,10523.5,45457.38,25567.03,0.0,10508.5,1050.5,19953.15,105.07,0.0,0.0,12596.5,629.76,12489.645,0.0,55196.77,0.0,10508.0,136551.42,0.0,4201.6,10508.0,10516.0,0.0,0.0,0.0,0.0,42038.0,21013.0,10506.0,0.0,21009.0,1050.3,0.0,230830.625,33908.54,0.0,10497.0,10495.0,10483.0,0.0,20843.26,23671.03,22729.64,89022.555,10470.0,0.0,0.0,24092.01,10475.0,69329.93,73953.5,11626.225,25768.335,104016.75,0.0,32047.41,4399.08,37293.22,63159.22,74500.97,25144.8,41876.0,22082.95,53049.41,69265.06,0.0,941.31,51955.44,10447.0,10438.5,31318.0,10443.0,20900.0,52277.5,10456.0,29579.83,41791.0,10442.0,77802.305,37789.93,40159.3,41704.0,76597.165,157963.985,300384.205,225339.4,280919.5,257010.01,123233.06
2019-04-25,2078.4,0.0,0.0,10376.5,12730.5,0.0,0.0,0.0,10396.0,10392.0,10584.44,0.0,4670.55,103814.5,51927.5,0.0,0.0,0.0,0.0,20750.0,0.0,6241.8,0.0,10389.0,20764.0,115979.26,96761.295,18705.6,10381.0,39777.295,20759.0,83027.0,0.0,0.0,48103.88,207.18,0.0,0.0,31036.0,20678.0,31013.0,20674.0,41351.5,31008.0,10330.0,0.0,0.0,34252.54,20624.0,20629.0,10317.0,30986.5,41341.0,10351.0,20696.0,10361.0,27562.58,35747.7,10357.0,65665.2,72486.5,0.0,10334.0,0.0,0.0,0.0,0.0,0.0,0.0,0.0,10353.5,10347.0,0.0,20680.0,20690.0,0.0,0.0,41411.0,51803.5,31093.5,62217.0,72591.5,51840.5,72579.5,510879.25,19354.62,12201.12,10334.0,0.0,0.0,23135.5,30978.0,0.0,65148.21,10367.5,300457.42,251967.025,882019.5,51874.0,14434.15,10371.0,23259.37,31171.5,41791.77,60857.88,31130.0,20728.0,31091.5,31110.525,10379.5,20751.0,31201.0,10400.0,265203.0,83195.0,72802.0,31184.5,10385.0,0.0,41556.92,41543.5,15871.13,0.0,103712.5,93330.25,72665.0,26587.36,35758.82,0.0,10402.0,10400.0,0.0,0.0,0.0,0.0,31166.0,0.0,9877.625,42100.45,72731.5,41561.5,10395.0,31177.5,0.0,20795.0,228776.5,61143.0,41604.0,2601.0,156802.35,28702.52,0.0,10404.0,31189.0,3222.605,20796.0,0.0,20774.5,0.0,0.0,119498.88,29923.7,0.0,31160.0,31151.0,10383.0,0.0,20761.0,10379.0,10383.0,41509.5,30305.68,0.0,32906.44,10379.5,20758.0,0.0,0.0,0.0,20732.0,20728.975,10364.5,8813.65,10362.0,0.0,31100.5,10371.0,17316.9,0.0,0.0,0.0,0.0,24065.32,0.0,27777.82,10371.0,20733.5,20731.5,10371.0,0.0,20728.0,27447.05,10359.0,31078.5,10357.0,0.0,0.0,0.0,0.0,11087.34,0.0,41469.0,0.0,31093.5,0.0,10359.0,10357.0,10364.0,20723.5,0.0,2175.6,38860.75,20732.5,30996.835,41459.0,15228.845,31062.5,0.0,41420.825,14499.16,0.0,10358.0,51773.0,10357.0,10358.0,20717.5,10355.5,0.0,20725.5,31095.5,10361.0,10360.0,0.0,0.0,10365.0,0.0,0.0,0.0,31100.0,0.0,0.0,10360.0,0.0,10362.0,10355.0,0.0,20718.0,10569.14,20496.98,0.0,0.0,0.0,0.0,0.0,10333.0,0.0,10333.0,0.0,10329.0,309.78,20333.31,0.0,20634.0,20641.0,0.0,0.0,0.0,0.0,10307.0,43297.6,0.0,20609.5,41189.5,0.0,41216.5,0.0,11945.84,0.0,10295.9,0.0,0.0,205.62,20571.0,30854.0,20576.0,31882.35,37119.845,16551.78,10280.0,545166.19,10292.5,41173.0,0.0,10303.0,0.0,20600.0,0.0,64313.125,4630.95,0.0,41073.46,10269.0,30817.0,0.0,121956.28,166394.6,28761.4,20562.0,29208.74,2982.795,41158.5,20577.0,26649.1,10288.0,0.0,20578.0,22844.59,20572.61,10288.0,7302.35,13369.96,10694.58,16555.185,0.0,20558.5,0.0,2875.6,45307.93,19106.325,90596.95,41071.0,10262.5,137514.825,19497.8,21029.9,40987.5,10244.5,10237.5,0.0,0.0,20490.0,10253.0,20504.5,20521.0,20511.0,83357.04,64405.71,61709.0,72045.0,10301.0,41208.23,10289.0,10290.0,30875.0,51620.18,24972.97,10275.0,10280.0,30849.5,30836.0,10282.0,20559.5,71934.0,0.0,20561.98,97607.43,42473.01,10282.0,41056.0,61564.5,123064.0,184603.0,63183.685,126084.24,249916.605,565815.17,387903.11,350765.785,412422.665,413936.37
2019-04-26,20284.5,0.0,0.0,0.0,20339.0,40612.5,30267.84,20206.0,40356.0,0.0,60268.0,60183.5,60175.47,10015.0,29968.0,19997.96,0.0,188130.69,0.0,57116.22,171113.99,21330.24,53908.38,20137.0,0.0,0.0,50195.5,20088.0,0.0,0.0,0.0,0.0,0.0,40097.0,0.0,0.0,10009.0,9981.0,9972.0,0.0,0.0,1692.01,12236.19,427707.5,19890.5,9963.5,5076.54,9949.0,0.0,25211.18,0.0,9904.0,13182.985,0.0,40945.67,70700.08,9915.0,0.0,19781.5,0.0,29679.5,9889.5,9886.5,0.0,19785.0,197.78,0.0,29634.0,19740.0,0.0,0.0,0.0,9361.3,9853.0,52160.185,9853.0,0.0,29596.0,49346.5,0.0,0.0,0.0,19686.0,19696.0,9831.0,98300.5,29403.5,29755.38,19562.0,39118.0,9773.0,39082.0,0.0,0.0,2931.0,9773.0,0.0,0.0,9753.0,0.0,0.0,0.0,0.0,0.0,78142.0,0.0,39179.0,19576.0,0.0,9788.0,0.0,0.0,102064.4,25813.71,0.0,88213.5,176404.0,372643.0,68680.5,9829.0,29467.5,441303.0,294218.5,49001.0,15677.0,2252.045,0.0,29424.0,0.0,2553.85,9819.345,29463.0,19639.0,9817.0,83442.75,0.0,105497.125,39271.0,49086.5,122798.0,29475.0,58834.0,0.0,0.0,0.0,9792.0,9786.0,19538.0,0.0,0.0,9785.0,0.0,9793.0,9789.0,0.0,37700.65,29374.5,88065.0,0.0,29361.0,425683.0,9786.0,9785.0,9775.0,9783.0,0.0,0.0,29330.0,19559.5,29442.31,78278.0,19566.0,0.0,0.0,0.0,0.0,0.0,0.0,29232.0,19487.0,9841.45,19491.0,0.0,0.0,38979.0,97.43,29225.0,19485.0,14624.0,19506.0,9755.0,19508.0,23619.2,0.0,29280.0,9765.0,14748.15,19527.0,27625.95,0.0,10057.95,29295.0,0.0,39025.0,9756.0,19510.0,9754.0,29246.0,0.0,6243.2,50250.465,27254.72,0.0,0.0,61762.805,58725.14,39076.5,0.0,0.0,19530.0,10456.04,9771.0,948224.36,59276.085,19520.0,0.0,0.0,10427.115,19583.44,28733.215,9832.345,9839.44,9744.0,9744.0,0.0,9747.5,19588.47,38943.0,0.0,19490.0,29226.0,0.0,68242.0,29250.0,9751.0,0.0,23388.4,0.0,9742.0,0.0,0.0,3018.16,0.0,9847.52,0.0,9751.0,9650.52,38008.3,0.0,0.0,0.0,0.0,19478.0,0.0,0.0,19790.47,0.0,18341.92,19518.0,19524.0,0.0,0.0,19894.08,0.0,19489.0,38977.0,33699.4,97.4,19463.0,19466.0,9826.24,0.0,9728.5,19528.415,29135.0,9732.0,0.0,0.0,19463.0,0.0,0.0,29245.0,21960.0,29312.0,19532.0,29267.0,59259.76,20710.52,58633.0,19508.5,78046.0,1951.8,48811.0,10346.72,58650.565,19511.5,29243.0,2727.2,7207.6,0.0,9749.0,9743.0,0.0,9750.0,0.0,9739.0,0.0,0.0,0.0,19489.0,29241.5,39003.0,0.0,11215.45,0.0,0.0,29241.0,585.06,19510.0,9747.0,30215.5,0.0,9761.0,10538.61,19521.0,20505.575,107667.94,0.0,68672.255,78110.0,113995.175,9758.0,487.25,9741.0,0.0,9737.0,2533.18,389.84,29228.0,126854.01,107255.0,19494.0,9750.0,19492.0,87752.0,97.46,5461.66,19299.14,29227.0,0.0,0.0,38984.0,21461.0,48741.0,0.0,29253.5,39060.5,233641.8,128240.19,58612.0,87954.5,19542.5,39074.0,9760.5,89333.635,46381.375,87860.0,165912.0,29272.0,9764.0,143048.925,136709.5,73140.84,214875.5,94505.57,195692.5,301041.24,76481.2,110476.095,3960899.655
2019-04-29,0.0,0.0,20990.08,0.0,0.0,78626.26,9808.0,58763.0,2050.44,46721.9,19555.5,19556.0,0.0,9809.5,0.0,0.0,9797.0,137289.5,98084.5,83901.02,39156.5,19564.0,39077.5,9767.0,33173.6,9751.0,71294.89,9735.0,29204.5,3400.95,0.0,22035.56,29320.5,0.0,0.0,0.0,9783.0,39121.0,9755.0,11505.0,0.0,9739.0,97.4,9735.0,0.0,12140.5,29941.26,14566.0,14567.75,20886.0,0.0,0.0,29134.0,9712.0,0.0,0.0,29085.5,96.93,0.0,0.0,9689.0,9697.0,38840.0,0.0,0.0,0.0,19423.0,9710.5,9703.04,9699.0,19400.0,0.0,9703.0,0.0,0.0,25423.98,0.0,9696.0,9691.0,33194.2,9708.0,0.0,29097.0,48460.5,9692.0,2456953.155,29082.5,61818.46,5907.24,19399.0,19371.0,9695.0,387.52,9696.0,42365.95,11053.44,38740.0,9689.0,0.0,0.0,9694.0,0.0,29086.0,261735.0,48816.94,58099.5,48424.9,0.0,19377.5,33228.62,24897.59,9693.5,0.0,388.0,75364.73,10867.1,65888.26,31310.4,0.0,0.0,2825.47,29245.0,19497.0,9759.0,0.0,0.0,10251.45,0.0,9771.0,878.75,0.0,19480.0,0.0,29216.5,19465.0,0.0,0.0,19473.0,0.0,138395.305,9729.0,9738.0,9740.5,0.0,44978.2,0.0,29206.0,0.0,19488.0,9746.0,0.0,0.0,0.0,0.0,5076.24,0.0,0.0,0.0,0.0,0.0,0.0,0.0,9768.0,19520.0,0.0,0.0,0.0,0.0,0.0,0.0,39020.0,9759.0,2439.875,0.0,0.0,0.0,0.0,0.0,0.0,0.0,31618.3,0.0,0.0,40056.7,0.0,6142.66,780.24,487.65,0.0,0.0,29272.5,9758.0,9769.0,19550.0,39058.0,165949.0,233160.42,47690.76,0.0,0.0,29347.0,0.0,29311.5,9770.0,9767.0,0.0,0.0,0.0,9762.0,0.0,0.0,39057.0,0.0,0.0,0.0,0.0,0.0,0.0,9759.0,4881.0,0.0,30873.065,878.85,19524.0,0.0,0.0,0.0,0.0,0.0,0.0,9755.0,0.0,48817.5,0.0,0.0,1073.71,9758.0,0.0,0.0,9758.0,9757.0,0.0,0.0,0.0,0.0,0.0,78336.68,1755.09,19496.0,0.0,0.0,0.0,0.0,0.0,9756.5,10733.8,0.0,5268.24,0.0,0.0,9770.0,9767.5,0.0,0.0,0.0,9768.0,9764.0,9762.0,0.0,0.0,0.0,0.0,0.0,0.0,0.0,0.0,0.0,0.0,0.0,0.0,0.0,0.0,0.0,0.0,0.0,0.0,0.0,0.0,9837.45,9741.0,0.0,19498.0,0.0,195.06,19500.0,0.0,0.0,58690.93,0.0,50790.42,9745.0,0.0,0.0,19699.06,0.0,877.23,9745.0,0.0,4772.11,0.0,0.0,5060.12,24422.3,9733.0,19458.0,49640.8,0.0,0.0,20927.025,11966.515,9724.0,0.0,9715.0,0.0,67958.5,0.0,0.0,9703.5,0.0,9688.0,19380.0,96.94,0.0,19411.0,0.0,9707.0,0.0,0.0,970.3,0.0,9707.0,485.27,0.0,9705.5,0.0,9710.0,0.0,9701.0,0.0,2328.0,0.0,9702.0,0.0,9701.0,484.45,7365.16,0.0,0.0,18703.63,0.0,20860.8,97547.75,126154.5,9706.0,29103.0,32420.72,12338.12,13020.94,38860.5,30122.1,124089.975,31488.505,0.0,9715.5,19531.165,38860.0,19430.5,58317.0,78253.64,39749.71,48600.5,97554.18,67996.0,38853.5,68776.08,87136.96,0.0,65158.13,10000.845,989272.4
2019-04-30,25596.185,19652.0,0.0,0.0,12413.25,24097.37,19516.0,5070.52,7991.86,5073.12,22078.45,0.0,29109.0,0.0,5634.12,0.0,0.0,45089.45,552627.5,9703.0,54168.05,0.0,0.0,9691.0,0.0,48942.06,22226.4,38674.0,29003.0,0.0,86999.54,37647.3,77256.0,0.0,0.0,48204.5,1735.2,137080.8,133398.05,59235.795,0.0,39619.82,0.0,0.0,40953.89,157226.79,113441.765,431682.995,115272.875,59749.51,76256.0,68034.82,21820.38,29045.12,105530.48,19152.0,0.0,19179.5,0.0,56275.385,9594.0,0.0,19207.0,10005.88,19245.5,0.0,9619.0,26350.08,9617.0,9617.0,0.0,192.3,0.0,18448.84,0.0,113331.325,37196.33,116301.06,43656.615,9557.0,1436.25,19155.5,19163.0,9585.0,0.0,0.0,1344.985,19207.0,105754.0,19235.0,126937.475,28060.375,58610.8,63229.41,42809.925,32544.1,27836.155,71646.0,29678.535,445601.01,84494.845,25313.025,45875.605,54163.8,47672.0,9562.0,19117.0,352657.9,133627.5,114645.0,38254.0,28686.5,12628.105,20307.88,214903.955,42584.28,57551.0,40283.7,144480.095,359303.32,67152.5,38415.74,19184.5,28766.0,29170.76,0.0,0.0,86395.5,28823.0,19229.0,96139.5,135772.78,57820.58,116738.95,77251.07,197652.76,1815036.92,38198.0,13391.815,182833.83,101330.31,9589.0,9592.0,28738.5,28729.0,95823.275,0.0,9679.84,19169.0,16286.0,19132.0,9572.0,0.0,9570.0,0.0,19138.0,9568.0,9561.0,0.0,0.0,60366.46,28706.0,19130.0,382.46,0.0,9558.0,9555.0,4012.33,9546.0,28647.0,38204.0,9554.0,0.0,0.0,28635.0,0.0,6687.45,0.0,0.0,21879.37,181754.0,28697.0,0.0,19122.0,38224.0,9554.0,0.0,0.0,955.25,1910.4,2863.8,57298.0,38193.0,0.0,0.0,24540.7,71622.75,20995.3,0.0,0.0,0.0,9541.0,19557.15,9534.0,0.0,0.0,1909.2,29599.9,7066.26,0.0,9848.77,16247.7,0.0,0.0,0.0,9565.0,0.0,0.0,1531.36,0.0,25159.895,0.0,0.0,9565.0,94733.85,10895.7,8217.3,19971.95,9554.0,954.7,9546.0,19090.0,57269.0,9543.0,9541.0,19070.0,0.0,0.0,9528.0,124841.05,28601.0,95.33,9535.0,9540.0,2575.54,49425.58,39477.26,39080.3,0.0,762.32,28572.5,9614.16,12369.35,0.0,0.0,0.0,0.0,76252.925,49974.25,20370.38,30273.065,19892.35,0.0,475.95,19698.12,30545.15,0.0,26809.9,9509.0,0.0,0.0,0.0,50453.46,0.0,2755.87,9503.0,19008.0,19003.5,47523.5,47525.5,1140.72,19012.0,9510.0,19021.0,385055.05,51747.22,28518.5,1137940.58,21858.89,32505.02,0.0,19101.04,38042.0,28535.0,28515.5,219471.41,19029.02,0.0,15234.6,0.0,11999.76,0.0,47571.0,0.0,28555.0,9523.5,66622.5,86834.64,8571.6,150074.655,9518.0,59974.8,440985.1,268201.05,0.0,1428.15,8092.85,9527.5,20013.0,38149.015,39037.14,17583.86,10222.85,0.0,0.0,14335.5,0.0,0.0,0.0,9561.0,162455.5,258066.0,19596.025,19127.0,9567.0,19606.225,19988.625,11381.77,0.0,191.29,2774.12,12056.505,967441.96,10632.03,19532.065,9860.66,536797.59,1485859.015,10528.36,20208.315,28941.54,9591.0,1054.725,37300.865,479.15,9581.0,517852.915,47901.0,36044.84,498913.0,862.695,28746.0,9585.0,508507.78,53712.6,88732.36,115180.0,23117.11,479.65,54778.685,46323.69,546605.0,115170.0,71459.675,38469.41,28794.0,28765.0,10447.56,142448.96,212831.195,153383.0,63833.18,64356.025,19181.0,39424.23,220948.305,67159.5,77300.64,76766.0,648126.67
2019-05-01,9590.5,0.0,0.0,57682.64,19164.0,38326.0,31814.41,0.0,9573.0,6604.335,133618.0,0.0,104714.0,9533.0,19110.5,2392220.0,77553.6,76630.0,67032.0,88813.635,41980.01,66994.5,0.0,38281.49,28693.34,47689.5,100002.5,9525.0,10468.7,19025.0,9502.0,19105.03,75904.5,47445.0,29282.74,18120.17,0.0,57112.5,80666.41,186245.11,0.0,9526.5,28938.12,11886.195,9511.5,76098.0,161709.05,105360.26,38071.0,57117.0,0.0,47659.5,19052.5,19064.5,28588.0,47631.5,57177.5,76102.01,9500.0,161520.5,67279.12,217816.0,51988.77,37978.74,62620.08,19912.8,14409.46,28468.0,0.0,94.97,227801.8,18934.0,82911.375,56856.0,66386.5,18972.5,28429.0,123238.0,9469.5,0.0,0.0,9454.0,0.0,49335.94,28342.11,20946.14,0.0,56596.82,118973.295,37684.5,28253.5,65983.21,58422.55,88135.615,290476.91,74304.87,148801.85,68248.875,102523.6,9402.82,8379.98,7906.63,9508.14,29267.77,400062.905,0.0,75214.955,9394.0,29607.3,0.0,65803.5,9485.95,0.0,0.0,13056.485,21629.3,187.985,9395.0,56405.0,76525.44,56481.45,18796.0,9393.0,93.97,0.0,9398.0,2080502.365,56460.96,95572.97,32056.72,94010.5,9424.0,37695.0,9422.0,141327.0,37855.88,150662.0,235374.5,507932.97,218354.04,122288.0,310580.66,65889.5,28208.5,28221.0,29154.6,37626.0,109104.495,85291.86,10346.85,9497.01,75196.5,65758.0,88079.32,28204.5,170101.58,38242.05,46957.5,9391.0,18763.0,10408.58,78702.61,178898.58,56299.62,9358.0,18714.0,1404.0,0.0,34146.8,24867.02,6727.68,74806.5,28069.0,28075.0,18720.0,9361.0,0.0,18734.0,18729.0,28367.89,0.0,0.0,28042.0,51394.0,151750.01,37395.5,37386.5,0.0,9339.0,37353.0,23349.5,18666.0,13348.335,28011.0,28005.0,48901.92,9331.0,270488.0,121174.5,121142.0,27961.0,27950.0,18626.5,37245.5,768548.15,71732.82,37438.31,46677.0,9338.0,0.0,28062.43,28036.5,25124.84,18670.0,9347.0,0.0,18674.0,9334.0,9811.925,18668.0,0.0,65416.53,102779.0,18669.0,0.0,0.0,0.0,0.0,18682.0,9346.5,28028.0,46689.0,130534.5,0.0,0.0,0.0,56014.0,55973.0,0.0,933.3,18658.285,9321.0,16326.105,22014.08,24824.375,0.0,37635.91,214732.0,37398.5,28051.26,74825.5,0.0,28073.0,9360.0,9351.0,28020.0,18695.0,121514.0,37385.0,0.0,0.0,9345.0,1964.55,2619.4,0.0,0.0,18706.0,18700.0,0.0,9345.0,18789.5,9344.0,102701.5,46712.5,236680.29,9364.0,0.0,37870.82,93762.0,9366.0,9360.0,10289.4,93592.0,0.0,18724.0,9359.0,28108.5,56251.0,50765.94,28129.0,18744.0,131210.0,48388.06,9383.0,24495.46,18768.0,259677.55,56234.0,46892.0,66387.76,28061.0,86408.34,84196.0,27379.31,18681.0,28117.52,62963.21,18680.0,16342.45,0.0,18631.0,9320.0,0.0,18630.0,27945.5,93073.0,19179.54,0.0,0.0,18623.0,37254.805,18645.0,50229.24,9333.0,9344.0,28044.0,28049.0,9355.0,18692.0,28037.0,36952.79,54906.365,0.0,30693.38,0.0,0.0,27999.5,0.0,47217.1,0.0,9237.69,18658.0,8022.08,27974.0,19769.38,111964.0,27979.5,50669.405,9331.0,114758.7,0.0,37283.5,18636.5,9496.16,40376.0,0.0,102459.42,235061.265,359895.23,80420.55,55769.0,83621.5,37148.5,51985.85,105991.68,52867.595,300402.515,111423.9,32168.9,67378.22,28064.845,395070.78,31532.1,18550.0,49614.9,51390.05,56223.37,9252.0,101430.81,83287.33,159426.42,27773.5,46278.0,48331.98,127054.385,89468.88,43787.14,123585.76,196940.57,668009.62
2019-05-02,9112.0,0.0,45923.26,22766.25,46044.255,18341.0,18356.0,12385.8,9551.6,85012.6,119559.6,0.0,18329.0,27488.0,19765.0,9187.0,3211.6,0.0,82753.0,27851.275,58457.97,19302.8,27537.5,0.0,45803.0,75163.9,18340.0,210673.28,9158.0,9159.0,9163.0,9179.0,43461.88,76158.77,18330.0,19251.1,9164.0,9153.0,27455.0,18279.0,9130.0,102002.1,54756.0,0.0,27448.0,20941.925,0.0,0.0,18274.5,9131.0,36519.0,18318.0,18316.0,18329.0,366.585,36644.0,733.12,22972.64,9148.0,18282.5,27404.0,9138.0,9141.0,9145.0,0.0,0.0,18254.0,18225.0,0.0,0.0,0.0,18187.0,0.0,0.0,363.32,18165.0,90.805,5262.72,18128.0,15327.68,0.0,0.0,18141.0,9073.965,9063.5,2451.67,27217.0,18133.0,22463.44,0.0,147891.09,18094.0,130096.86,542.85,128566.76,40550.18,63360.5,9049.0,9041.0,29387.75,36193.5,13929.3,27612.53,9039.0,14100.465,90853.95,5329.765,18052.0,18035.0,19188.69,20238.0,4493.0,2338.96,8989.0,0.0,0.0,539.52,35453.45,84731.765,27386.0,27060.73,17988.0,43653.32,35979.0,0.0,126075.05,18090.0,0.0,0.0,8988.0,8982.0,0.0,8977.0,0.0,16144.0,0.0,0.0,0.0,0.0,269.64,8985.0,0.0,8957.0,8335.59,17902.0,17892.0,9035.965,0.0,26991.27,35822.47,0.0,0.0,0.0,8964.0,6631.14,89.82,89.875,17960.0,0.0,53909.84,0.0,41304.6,116832.33,89810.15,17953.0,3494.84,0.0,8964.0,3584.0,2687.1,35800.0,0.0,71632.5,62729.0,134410.5,1790.54,538.66,26926.5,205995.005,8973.0,17968.0,46111.9,73086.15,17978.0,26959.5,26949.0,35913.5,449.1,35937.0,28025.72,1077.6,8977.5,0.0,0.0,26940.5,62774.17,8980.0,0.0,9336.08,18329.12,26933.5,79088.22,11285.82,28031.3,97432.2,89.66,35865.5,8960.0,0.0,9055.23,26917.0,0.0,0.0,0.0,8943.0,17894.0,0.0,26823.0,1521.075,8588.305,17913.0,26861.0,17917.0,0.0,89583.0,0.0,2872.33,8976.0,17951.5,9070.81,8987.5,0.0,9084.99,16290.8,89.97,17997.5,0.0,98916.0,0.0,0.0,17987.0,9442.65,35952.5,17974.0,1437.6,0.0,1706.77,7725.38,10241.62,26955.0,8980.0,26940.0,54104.72,71799.0,66021.375,0.0,26953.5,8980.0,17950.0,0.0,26925.0,53847.0,0.0,8973.0,80722.0,0.0,8974.0,0.0,35889.5,0.0,0.0,17924.0,8958.0,895.6,17910.0,8961.0,13353.36,8955.0,13976.955,26901.0,1524.26,9403.95,0.0,0.0,14719.0,8961.0,0.0,26925.0,17950.0,0.0,8967.0,896.5,25040.75,179.69,0.0,17986.0,8993.5,2153.4,8955.0,102646.36,8966.0,0.0,8966.0,45164.52,8970.0,6453.36,4121.14,0.0,16788.99,8969.5,8975.0,146124.15,140955.23,125713.0,40423.75,8977.0,0.0,9056.17,29405.7,0.0,8330.475,26929.0,8980.0,17959.0,74445.75,19203.75,0.0,45519.32,76902.89,27992.62,29891.09,0.0,29443.84,0.0,80782.0,17778.775,19296.725,0.0,9774.8,20613.3,9501.69,8967.0,53231.68,11114.08,27052.2,17910.5,0.0,19289.15,0.0,9787.065,8974.0,74451.89,0.0,0.0,9249.34,0.0,27391.0,0.0,53845.0,2244.94,19037.76,0.0,0.0,26887.0,26888.0,96386.52,67174.49,17753.68,807.3,25037.2,806.625,18004.6,8966.0,97194.35,13284.92,27278.72,81599.15,99494.52,70935.8,101253.78,108131.925,179094.465,342962.56,315023.23,345073.93,453929.39,63275.93,135923.36,87125.0,543349.835
2019-05-03,0.0,423865.5,82957.0,148134.5,138149.78,363872.68,233030.04,181855.93,136952.5,391850.0,0.0,9114.0,14318.26,32014.945,154844.5,180462.26,235509.0,63082.635,109152.0,154156.44,18138.475,9082.0,45471.0,81779.5,0.0,63656.5,45542.99,0.0,72739.0,41031.91,147529.66,73254.275,126135.785,109728.0,65018.275,60724.5,10381.505,52721.23,0.0,82517.0,9175.5,45920.0,57049.295,192902.5,73459.5,41707.36,9208.0,73684.0,36842.0,92380.5,216952.68,27687.5,51923.34,35107.0,129387.5,92576.5,221728.69,120598.5,241816.5,65117.5,1254626.0,139280.5,343630.5,640876.0,92495.05,201753.83,27872.0,18584.0,65192.47,18600.95,72286.255,106487.38,31808.63,104246.79,1953.84,83708.5,130227.0,74431.0,9305.0,46507.0,93001.0,18597.0,544931.52,9301.0,10507.285,65089.5,14043.725,37183.0,21290.355,70967.815,106920.75,28835.7,29091.58,82353.75,46615.0,0.0,56293.7,59915.28,28065.35,18693.0,90696.5,9340.0,106054.22,195664.5,10896.21,492899.0,18594.0,76609.235,30209.42,30678.27,0.0,0.0,22874.52,18527.5,21975.01,9288.0,0.0,0.0,0.0,2226.24,9275.0,0.0,23474.7,0.0,39448.0,9272.0,0.0,0.0,0.0,63719.25,27830.0,37098.0,9283.0,18566.0,18562.0,26059.32,73266.39,69322.86,0.0,18530.0,27795.0,9273.0,9278.0,23006.96,30480.44,6212.24,21597.43,23527.75,9265.0,55567.0,0.0,11866.02,25694.6,9271.935,0.0,9373.83,18579.5,9293.0,27874.0,0.0,37624.55,27870.0,55705.0,0.0,12705.01,52405.225,0.0,9280.0,9276.0,46372.0,0.0,0.0,9278.0,0.0,34790.0,9278.0,0.0,18556.5,18550.0,4545.24,37118.0,0.0,20618.56,57532.4,9275.0,82262.2,8625.87,19017.85,0.0,9282.5,18584.0,19054.7,18598.5,16185.72,9303.0,55775.0,18570.0,0.0,0.0,9302.0,22413.0,9301.0,27880.0,0.0,9285.0,0.0,269850.685,28286.7,0.0,19386.66,0.0,13266.25,0.0,27845.0,9273.0,0.0,0.0,0.0,46349.5,9271.5,9268.0,18538.0,25029.0,39852.4,55598.0,27804.0,11581.5,46275.0,27801.5,9265.0,0.0,9276.0,9270.0,0.0,9266.0,9273.5,19462.9,46305.45,2963.84,18525.0,9268.0,9261.0,111059.0,31541.73,21782.8,9228.0,9215.0,0.0,26245.65,0.0,9212.0,0.0,0.0,27651.0,18404.0,0.0,0.0,18424.0,9212.0,64501.0,35673.96,27655.0,9212.0,14370.44,40589.68,9184.0,15979.42,9178.0,18372.0,36735.0,0.0,9357.51,0.0,18337.0,9170.0,0.0,18366.0,9183.0,9184.0,18389.0,0.0,0.0,0.0,0.0,49428.85,55242.0,0.0,9215.0,27645.0,0.0,35022.2,37168.66,35596.92,0.0,0.0,735.56,27588.0,18387.0,0.0,0.0,27569.0,0.0,0.0,18358.0,0.0,0.0,9177.0,18343.0,18794.325,18329.0,9164.0,36675.0,0.0,27520.0,18342.5,18355.0,27536.0,18355.0,9171.0,18344.5,8256.15,0.0,0.0,18866.2,9212.5,39612.3,27633.0,0.0,18386.0,0.0,9182.0,11661.95,0.0,0.0,27533.0,0.0,734.24,9647.2,0.0,0.0,0.0,0.0,0.0,9176.0,18350.815,0.0,0.0,9172.0,16417.98,18338.0,18342.0,18338.0,9168.0,25868.72,18338.0,50893.8,4129.2,0.0,16069.875,15576.9,0.0,9165.0,18328.0,23530.635,9165.0,36649.0,10440.12,27549.01,70599.46,48443.82,91680.0,46636.58,58676.83,10144.17,9148.0,35661.37,73114.0,27409.0,33930.56,72983.0,46390.72,28227.24,43777.6,27379.0,58297.42,91568.5,64527.58,265413.025,167383.605,344579.97
2019-05-06,8965.0,50145.64,0.0,27168.0,0.0,27328.05,47272.82,901.0,17997.5,0.0,6120.0,0.0,0.0,0.0,9000.0,8997.0,9001.0,27028.5,9008.5,45038.0,71944.5,81833.24,17993.5,84325.4,83845.02,18124.5,54362.5,18122.0,9085.5,9068.5,79518.7,81655.0,0.0,13856.27,22377.92,81629.0,25973.53,0.0,49686.05,18814.32,0.0,9127.0,9138.5,18278.0,9892.36,37532.1,59592.785,18277.0,27709.91,55085.08,27424.0,18285.0,45684.0,26075.5,36474.5,9121.5,36471.5,9126.5,0.0,9111.5,10634.875,9086.0,0.0,0.0,36290.5,0.0,9072.5,0.0,18184.0,9090.0,73677.97,9103.0,9101.5,101547.635,20791.94,0.0,73735.655,40736.495,99407.775,128400.415,59717.87,0.0,72471.5,139691.12,9062.5,9251.22,8805.46,31414.76,0.0,0.0,0.0,51707.79,0.0,9082.0,9072.0,27203.5,181.14,36298.07,9050.0,9048.0,19912.0,9052.0,9049.0,0.0,9072.0,0.0,13634.145,22314.05,9101.0,9554.605,0.0,9101.5,28030.92,27276.0,0.0,0.0,0.0,1273.4,0.0,18200.0,40318.73,0.0,5000.05,90.72,9244.44,272.34,18170.5,9097.5,0.0,0.0,9111.0,9112.0,819.99,9101.0,54569.0,0.0,9483.86,2095.53,0.0,0.0,9096.0,10447.75,72656.0,9094.0,10078.14,72624.0,32661.1,45294.5,18113.5,9052.5,0.0,9053.0,0.0,0.0,9056.0,0.0,9055.0,18118.0,9246.26,9068.0,0.0,9063.0,0.0,18138.0,45435.69,0.0,0.0,18163.0,18158.0,0.0,0.0,9099.0,45917.675,0.0,45665.92,9098.5,0.0,9918.95,27266.5,72708.0,48315.7,27388.41,9062.0,9057.5,9057.0,99666.0,9062.5,0.0,9055.0,72510.0,0.0,0.0,0.0,9071.0,27213.0,27209.0,0.0,9069.5,0.0,0.0,9062.0,63434.5,72505.0,622499.0,128158.36,63520.0,63511.5,36303.0,9080.5,34306.38,18134.0,9067.5,18133.0,18138.0,18139.0,18150.0,35859.1,18160.0,9077.5,86881.96,79028.64,0.0,0.0,9068.5,36259.0,0.0,18163.0,0.0,9085.0,9080.5,37069.88,0.0,27253.5,9086.0,0.0,0.0,18178.0,9091.5,18181.0,36359.0,36360.0,0.0,9088.0,0.0,0.0,11454.92,0.0,18181.5,54534.0,54537.5,0.0,9091.0,0.0,0.0,0.0,0.0,27375.0,13229.575,9306.54,0.0,40279.12,0.0,0.0,9136.0,0.0,45697.5,18266.0,0.0,37227.42,16425.2,9303.42,34093.58,9117.0,10397.94,0.0,27357.5,36493.5,18245.0,27376.0,22916.3,54777.0,9117.5,63912.0,64605.04,32018.19,9120.0,24905.33,9114.0,0.0,0.0,0.0,63807.0,7835.82,0.0,18227.5,18773.34,364.8,18246.0,0.0,36487.0,37047.32,21181.605,37789.92,148021.37,55265.65,27358.0,72954.0,9120.5,0.0,0.0,9134.0,0.0,94671.025,4936.14,18280.5,20021.29,41052.07,24322.05,36959.92,9155.0,0.0,27489.0,27482.5,36644.5,13556.8,0.0,27488.0,23738.94,27494.0,18319.0,0.0,11458.75,0.0,27532.0,73695.6,27627.73,27724.58,76076.025,55057.0,18518.42,27492.0,100780.25,28678.385,20973.66,101041.71,18298.0,27183.41,27474.0,16857.8,18321.25,9254.12,30256.35,9165.5,27500.0,0.0,65284.74,27543.0,9178.5,235211.34,165247.0,55198.36,18327.0,100754.555,54900.5,22144.5,35895.08,169515.41,46834.88,31212.22,38305.98,9506.68,109560.5,55112.5,137147.81,55207.72,36495.0,81773.975,35825.765,91190.5,37127.04,29054.16,27414.5,62130.84,186377.28,265070.16,211889.09,119267.98,82760.7,91723.98,582427.91
2019-05-07,63102.26,26989.0,53942.5,8989.5,62678.27,17976.0,53053.5,36112.0,45318.5,9070.5,9029.0,99812.13,38154.45,18119.5,18218.32,0.0,9412.72,2708.7,0.0,0.0,287969.0,8983.0,8990.5,0.0,11938.48,20457.52,9054.0,0.0,0.0,18122.0,72591.0,27157.0,27165.0,40803.75,54458.615,99848.82,45337.0,18162.0,36319.64,72853.72,29405.76,54496.0,0.0,30319.31,18220.5,54663.0,9098.0,18188.0,0.0,18212.0,36447.0,36491.0,9124.0,54737.0,0.0,27268.8,9123.0,20356.98,9125.0,9868.72,9128.0,27355.0,18222.0,0.0,9075.0,9057.0,0.0,27172.5,206516.025,70727.175,716409.37,4091.175,12647.355,36379.0,14636.51,27273.5,163707.0,36318.0,22688.75,9077.0,9062.5,9055.5,9059.0,9067.0,45296.5,9059.5,90.585,9060.0,12332.5,9056.0,63549.5,27194.0,27169.0,126684.5,27139.0,56748.73,9049.5,92036.33,13842.385,45293.5,0.0,1178.835,18327.8,18113.5,453.55,0.0,9072.0,36300.0,0.0,17055.24,9063.0,0.0,0.0,18130.0,77155.915,18130.0,18133.0,0.0,18166.0,9094.0,0.0,30048.7,18228.0,9104.0,0.0,0.0,9079.0,54382.0,154573.9,72568.0,9095.5,9080.0,0.0,0.0,18167.5,0.0,63643.5,0.0,0.0,27265.5,0.0,0.0,9070.0,18148.0,10435.53,12339.0,0.0,9059.0,1357.65,18107.5,45266.5,0.0,54294.5,9049.5,9425.04,9063.0,45351.0,0.0,0.0,0.0,9080.0,0.0,0.0,0.0,9076.0,9071.0,20158.59,0.0,0.0,0.0,0.0,0.0,9075.0,0.0,0.0,0.0,18142.0,0.0,0.0,0.0,0.0,0.0,9095.0,9089.0,0.0,25726.69,23816.835,9092.0,0.0,18185.5,9088.5,0.0,54539.0,29461.68,15177.63,18910.9,0.0,0.0,0.0,9092.0,4180.48,9096.0,0.0,1182.09,0.0,9531.55,0.0,9061.0,61558.4,10344.15,62233.49,18141.5,45356.0,9067.0,54385.0,90545.0,80524.62,72451.5,35733.675,9135.45,0.0,19348.46,63680.2,64251.3,0.0,0.0,0.0,18293.4,0.0,0.0,9036.5,0.0,9039.5,0.0,37431.18,26223.15,0.0,9039.0,9044.0,0.0,53004.97,27096.0,18958.9,18078.0,27140.0,9045.0,9046.0,1354.16,18073.0,0.0,56799.66,189474.5,9024.5,9389.08,0.0,0.0,9119.77,0.0,11298.875,9049.0,9052.0,0.0,7065.24,9071.0,9059.0,9049.5,0.0,0.0,1811.0,0.0,28259.28,0.0,0.0,0.0,9060.0,0.0,18150.0,27236.0,0.0,9078.5,9076.5,0.0,0.0,0.0,50286.08,0.0,9073.0,18136.0,18134.5,0.0,0.0,9076.0,0.0,27215.0,36242.0,27205.5,0.0,27183.0,27356.04,1811.4,7249.6,18112.0,18086.5,18096.0,27145.5,126824.5,119240.98,99772.0,27207.0,0.0,0.0,9077.0,18142.0,9065.0,271.8,0.0,18128.0,13505.83,0.0,0.0,1722.27,9520.56,15963.06,27223.5,9080.5,9100.36,9099.38,14474.13,18481.15,8833.815,27683.34,0.0,36409.2,27544.64,9092.975,8912.11,5545.815,10005.79,9097.0,0.0,0.0,9121.0,9128.0,181596.2,54763.0,9132.0,45609.0,12046.32,9124.5,100270.0,9119.0,36468.5,18231.5,8294.65,27309.0,9108.5,109262.0,27312.875,45522.5,9195.55,36425.0,18213.0,18217.0,20492.0,139564.17,18203.5,27317.0,182115.0,0.0,27325.0,54652.0,0.0,23457.49,19910.12,18281.0,36596.0,18108.06,9144.0,27452.0,18292.0,914.2,0.0,45789.0,28130.99,91745.5,71262.19,38630.9,46770.0,49615.38,105235.065
2019-05-08,18323.5,0.0,9223.5,9203.0,0.0,9244.5,9261.0,18575.5,46383.5,9268.0,0.0,129941.0,37135.5,9825.46,0.0,18598.0,9318.0,18660.0,41135.6,46717.5,37275.0,37289.0,46770.0,10017.84,0.0,9329.0,9315.0,9311.0,9308.0,9324.0,20735.72,2242.56,37359.5,11650.0,0.0,0.0,93.56,0.0,28081.0,84269.34,935.56,9343.0,0.0,18689.0,0.0,0.0,10276.745,0.0,0.0,9333.0,23363.0,112166.0,9358.0,9458.12,131099.5,121762.5,74937.5,46810.0,0.0,9342.12,28131.5,46478.16,46728.0,18683.5,0.0,37369.0,18687.0,18688.5,0.0,9343.0,654.99,0.0,10299.2,18721.0,77717.9,0.0,28118.0,0.0,65692.0,9380.5,0.0,0.0,18755.5,0.0,9358.5,561.6,0.0,38735.98,23597.28,43650.75,151006.27,36507.54,37648.5,218347.265,80167.75,119320.67,9450.5,11358.5,18925.0,34183.99,38041.67,70352.7,28260.5,47158.0,86471.0,168983.38,75593.5,40798.62,56659.0,0.0,0.0,28289.68,12813.775,33904.8,11293.6,0.0,0.0,0.0,9392.0,0.0,9401.0,9401.0,9401.0,55093.49,30997.55,56383.0,18798.0,28157.0,27025.54,0.0,0.0,18756.0,0.0,9378.0,70540.12,18766.0,0.0,14651.52,0.0,0.0,1221.2,0.0,9391.5,0.0,18794.0,0.0,28215.0,0.0,0.0,18804.0,18800.745,0.0,9387.0,0.0,0.0,0.0,0.0,9577.82,0.0,0.0,11530.85,6841.46,28127.0,28126.5,42924.89,23060.04,0.0,28146.0,9382.5,37495.0,37383.36,18747.0,0.0,0.0,0.0,18763.0,10412.19,18774.5,18775.0,28178.0,0.0,0.0,0.0,9369.205,0.0,0.0,9371.0,0.0,25094.24,9358.0,9357.0,9543.2,0.0,0.0,0.0,18714.0,9362.0,18734.0,41698.86,3563.26,0.0,9381.0,46605.31,28113.0,0.0,46840.5,28110.0,18751.0,53072.67,28136.0,28126.0,0.0,0.0,0.0,18760.0,18755.0,9372.0,28136.0,20725.38,9377.0,37517.5,9379.5,0.0,9564.03,9375.5,11998.6,29600.8,9368.5,58348.295,18729.0,0.0,1874.4,0.0,0.0,28146.0,37775.705,18760.5,0.0,0.0,28114.0,0.0,56198.5,18745.0,1031.69,22513.9,9380.5,72357.29,25702.2,0.0,0.0,0.0,0.0,9471.81,9382.0,0.0,9380.5,21396.8,2342.75,18746.5,187.58,0.0,0.0,1313.56,21669.925,1031.1,11341.82,31027.94,0.0,0.0,0.0,9381.0,0.0,9370.5,32151.445,29434.22,0.0,18738.5,18743.5,46885.0,9382.0,9376.0,93.76,0.0,9365.5,0.0,9460.65,562.2,9374.0,13961.22,4121.23,47027.84,2904.545,18847.25,27196.3,46936.5,22170.12,47184.975,376.12,5266.21,28873.235,18835.0,9414.0,18830.0,0.0,28462.0,9424.0,9421.0,9415.8,0.0,0.0,660.03,23661.73,22799.115,13943.12,44304.55,9994.83,19020.36,33245.015,0.0,19214.48,0.0,0.0,56502.0,28265.5,32804.77,32335.075,0.0,22973.56,34212.75,18842.5,24036.3,9420.0,9425.5,16018.84,9415.0,9410.0,19026.24,37876.42,9602.26,0.0,0.0,35517.2,28451.44,565.92,16782.27,3012.8,14213.385,0.0,9426.0,0.0,0.0,0.0,0.0,9431.0,18861.0,28300.0,18876.5,47206.49,9445.5,56908.11,10475.845,28318.0,9436.5,47215.0,566.46,0.0,19082.9,56676.0,66136.37,57661.505,26902.45,52460.69,28851.62,188.61,28475.6,9429.0,37974.795,366627.525,9619.13,28660.66,57078.64,95839.23,28270.0,70670.0,95400.58,125331.56,90576.74,62031.34,135653.25,400047.54
2019-05-09,40437.7,11771.605,2501.145,0.0,0.0,14670.98,0.0,14562.53,0.0,18650.0,9323.0,0.0,9321.0,0.0,0.0,18532.0,27775.1,0.0,0.0,37003.5,9232.0,27679.0,0.0,9235.0,0.0,738.68,18495.5,369.92,0.0,37996.1,75712.72,278683.35,9360.67,74121.26,19954.08,0.0,8816.475,9296.0,9292.0,65100.0,139320.0,0.0,0.0,9285.0,27866.0,32779.61,0.0,9637.82,0.0,27783.0,9247.0,27799.0,55567.0,9276.0,39420.0,19109.06,9275.0,0.0,30376.76,12463.96,54910.3,37221.0,27930.0,49894.24,0.0,9295.5,9298.0,37173.0,9275.0,0.0,46394.0,18562.0,18620.0,9969.54,46622.5,9330.0,9329.5,28028.0,0.0,467.1,18676.5,28037.5,0.0,18685.0,9437.47,19145.25,9340.0,9337.0,28027.0,46688.5,37383.5,9349.0,28047.0,12341.68,18719.0,9354.0,18716.0,18696.5,9360.0,0.0,18751.0,1688.76,47228.52,0.0,10326.4,9379.0,0.0,0.0,0.0,0.0,0.0,18691.5,0.0,0.0,27985.0,9337.0,84789.245,46579.5,27946.5,652.085,9330.0,9325.0,18677.0,0.0,0.0,0.0,52934.3,9350.0,0.0,9365.0,99771.28,21172.7,30596.66,41489.35,131251.0,41629.78,0.0,9372.0,0.0,0.0,0.0,0.0,19213.05,38605.64,18759.5,0.0,0.0,0.0,9372.5,0.0,9388.0,0.0,0.0,9381.5,18765.0,18768.0,18762.0,35116.88,93.965,9402.0,46984.5,18790.0,0.0,0.0,0.0,18783.0,0.0,0.0,9414.0,0.0,19090.12,9402.5,34227.2,18812.0,8651.68,9985.94,0.0,18833.5,9432.0,9429.0,9435.0,0.0,9452.0,32898.92,55212.28,0.0,0.0,0.0,9472.0,47391.5,0.0,0.0,18950.0,34813.75,94.63,9467.0,56726.79,9463.5,47283.5,9461.0,9459.0,13804.88,28381.0,9478.0,9476.0,0.0,9480.0,0.0,20085.08,17831.8,28499.0,0.0,51612.58,15114.54,45703.905,0.0,0.0,22849.3,0.0,0.0,9478.0,18926.0,0.0,9478.0,9952.3,568.26,0.0,1607.85,0.0,17014.2,18897.0,0.0,9455.5,9459.0,9644.12,0.0,0.0,9550.57,7572.4,14572.25,28684.01,0.0,0.0,0.0,0.0,0.0,9471.0,10121.445,18920.0,0.0,9466.5,9462.5,0.0,0.0,0.0,0.0,9460.0,94.565,18911.5,9471.0,28421.0,10227.475,0.0,18931.5,31323.72,10318.485,23002.165,2556.9,11555.34,94711.0,9481.0,0.0,9467.5,28559.6,18918.0,0.0,9475.0,18946.0,37861.0,0.0,28432.5,9479.0,21412.24,151658.0,9481.0,9479.0,9477.0,9477.365,0.0,9471.5,93763.01,2559.2,0.0,0.0,473.575,9467.5,9464.0,13888.0,59511.95,0.0,9918.25,9447.0,9452.0,30820.975,56670.5,28323.5,0.0,56613.0,0.0,94.42,18888.0,28344.5,58477.38,63566.025,18878.0,18872.0,78113.305,3301.9,32621.68,28283.0,20366.32,66045.0,32551.25,9437.0,9436.0,47181.0,28294.0,47120.0,0.0,26738.1,18832.47,45076.48,0.0,10354.0,28254.0,40776.34,9414.0,18821.5,0.0,20941.93,18775.0,18788.0,9394.0,9403.0,18798.5,0.0,22000.02,94026.0,9399.0,33096.04,43559.795,9410.5,32935.5,9883.85,28251.5,9414.5,28246.5,18826.5,15630.56,9517.18,0.0,9431.0,0.0,47169.36,18878.0,18870.0,94314.0,37702.0,0.0,18871.0,9435.0,37712.5,60227.76,0.0,9434.0,53755.63,25941.0,28294.0,29053.72,84869.0,147680.8,55658.7,83107.74,84884.5,15751.44,37738.5,74544.27,72815.575,98955.35,243906.015
2019-05-10,18841.0,0.0,28163.0,18796.0,37636.5,28204.5,4790.43,9411.5,47058.0,18840.0,28260.5,47072.5,122398.5,9392.0,18788.0,9383.5,28176.0,0.0,37632.0,7976.4,27928.56,748.8,37448.0,206350.5,325455.06,187490.5,0.0,344892.37,149519.725,56201.0,88024.6,37418.0,44012.05,0.0,16373.625,6540.8,18675.0,28015.5,0.0,18692.0,0.0,15419.75,18696.0,5136.45,13069.0,31874.735,27891.5,18588.5,9299.0,0.0,3252.9,12542.2,9290.5,25536.75,1206.725,16281.625,0.0,0.0,5584.8,9585.77,18627.0,9304.5,10330.62,9302.0,0.0,31533.805,0.0,5573.1,36023.575,10940.96,56623.05,9265.0,27829.35,9274.0,4918.4,42250.225,46524.5,51182.5,37236.0,74374.0,74442.5,37242.5,18632.0,0.0,27945.5,14717.7,36979.0,18634.5,18656.0,24235.2,23771.2,0.0,27942.5,0.0,6051.175,0.0,9323.0,9329.0,0.0,148930.5,158212.5,112635.9,65151.0,6144.39,27963.0,1956.57,0.0,40602.025,116662.5,38187.145,22531.68,0.0,73033.1,9358.5,28074.5,9358.875,12345.6,18725.6,0.0,4679.0,9356.0,9343.0,0.0,37392.0,0.0,9345.0,11212.8,0.0,28098.0,0.0,14039.5,18725.0,14011.75,37968.215,9340.0,57396.72,56024.0,0.0,30915.32,9334.0,13993.5,0.0,0.0,0.0,14111.45,37467.5,20303.18,18715.0,57574.9,0.0,18748.5,40126.78,9369.5,1499.6,15171.19,18730.0,5147.175,5144.15,0.0,0.0,5144.7,28071.0,18742.0,0.0,9379.58,9376.5,0.0,14258.72,9386.0,9386.0,9380.0,0.0,18772.0,0.0,5161.2,0.0,3006.56,28194.0,0.0,0.0,0.0,1129.38,14597.15,9993.92,0.0,0.0,0.0,0.0,0.0,0.0,0.0,13183.1,1504.955,0.0,0.0,9418.0,0.0,4144.62,0.0,2633.82,0.0,0.0,0.0,0.0,0.0,3301.9,18852.0,9426.5,0.0,0.0,18856.0,9439.0,0.0,0.0,0.0,4342.63,9435.0,0.0,0.0,0.0,0.0,9438.0,0.0,0.0,0.0,0.0,17430.6,65965.0,18864.0,0.0,0.0,0.0,3969.84,4247.55,0.0,18894.0,0.0,0.0,18902.0,23435.04,0.0,3780.8,399486.4,3783.0,0.0,0.0,9454.5,0.0,3306.625,0.0,10118.05,0.0,9452.5,18894.0,0.0,0.0,9458.0,0.0,30847.84,0.0,28377.5,10502.655,6998.92,0.0,3784.8,0.0,13231.0,0.0,0.0,387757.5,48887.51,22598.44,18925.0,3785.0,0.0,0.0,3784.8,23485.6,38545.4,46674.775,0.0,23680.45,13727.925,9467.0,9453.5,44402.875,28334.0,28333.5,1415.25,79733.25,47147.0,37700.5,37663.5,56358.925,37638.0,69977.405,0.0,3957.16,3296.65,0.0,17614.59,37674.0,18843.0,0.0,0.0,25075.62,28275.0,18859.0,19538.31,0.0,3777.0,18885.0,11231.445,0.0,4718.75,18873.0,5190.575,18878.5,0.0,283.2,171709.275,28331.0,47269.5,0.0,9450.0,9455.0,0.0,10875.15,28373.0,41644.6,18918.0,10128.04,9477.0,87574.375,9478.0,9479.5,18960.0,4736.0,19886.75,28424.0,18953.0,0.0,0.0,0.0,56868.0,0.0,9488.5,0.0,8076.15,0.0,190.22,28511.5,9511.75,0.0,14740.65,77124.77,12373.1,0.0,0.0,21035.15,117771.26,96486.85,238915.5,26112.25,0.0,36024.6,0.0,0.0,8715.58,123123.0,28406.0,6910.18,150516.35,104125.5,37853.0,18934.0,9476.0,59300.02,104542.82,151622.8,18940.0,66303.0,18943.0,9479.0,113763.5,47708.44,47390.0,47439.5,128085.45,218953.235
2019-05-13,0.0,0.0,0.0,0.0,9435.0,11145.08,29413.51,850.68,17023.4,0.0,4727.0,0.0,11835.0,0.0,0.0,0.0,0.0,0.0,9488.0,75783.5,0.0,491640.0,141772.49,406153.0,0.0,0.0,0.0,9429.5,180298.66,103774.0,0.0,0.0,37656.0,37617.715,89453.25,0.0,76015.205,37595.0,122179.0,0.0,18738.0,93647.0,37474.0,46867.0,18744.0,6940.46,37564.0,103484.855,128899.07,169499.0,28206.0,22727.59,28166.0,0.0,9409.0,9417.0,0.0,11576.07,9423.0,18849.0,9422.0,75480.0,0.0,47153.5,37734.0,18894.0,75666.0,85099.5,661910.5,379603.1,111876.965,69810.795,168561.015,83259.93,66655.0,57673.23,28570.0,93501.13,66536.0,10524.47,0.0,0.0,0.0,9480.0,0.0,9475.0,0.0,0.0,0.0,9481.0,9496.0,9494.0,757.52,9461.0,0.0,9449.0,0.0,18927.5,27246.04,1134.9,28347.0,0.0,9451.5,0.0,17266.2,0.0,9423.5,18988.88,0.0,9406.0,28254.0,20903.08,18818.5,0.0,17523.48,9409.0,9401.0,9389.5,9388.5,1127.52,0.0,9399.0,18799.0,0.0,18803.5,0.0,0.0,9390.0,0.0,0.0,0.0,9368.0,9380.0,9389.0,845.1,27326.855,0.0,18772.0,361843.72,18767.0,49465.64,84308.0,0.0,0.0,0.0,28077.0,9359.0,613636.75,0.0,0.0,0.0,0.0,0.0,38930.25,52332.66,37517.5,47845.7,56275.0,112487.0,37463.0,65625.0,331217.3,28095.0,47069.61,0.0,0.0,9363.0,0.0,0.0,28332.13,9380.5,0.0,9383.0,0.0,18759.0,9385.0,0.0,0.0,18764.0,227222.8,3373.56,37443.5,9369.0,140617.0,18739.0,28142.0,37517.0,9385.0,9400.0,9401.5,18799.5,9398.0,9384.0,37521.0,142348.4,11925.3,4131.6,0.0,0.0,9397.0,9397.5,0.0,9408.5,0.0,18807.0,0.0,9377.5,93868.0,0.0,9390.0,18774.5,9375.0,824604.0,18756.0,18763.5,347047.0,121874.5,9375.5,18726.0,37443.01,18716.0,0.0,10213.165,13127.4,0.0,4687.5,6089.2,28135.0,0.0,0.0,9372.0,0.0,0.0,0.0,17909.98,9386.0,9379.0,0.0,18743.0,0.0,18746.0,9391.0,0.0,42197.5,0.0,0.0,0.0,0.0,14912.61,9394.0,9385.0,37518.0,12661.175,11716.0,18740.5,9362.0,15072.82,18718.5,35022.32,18735.5,0.0,0.0,0.0,0.0,9361.0,0.0,9364.5,9358.5,9361.0,9834.15,0.0,9370.0,9370.0,9376.5,2906.735,18765.0,18767.5,0.0,0.0,18772.0,3097.38,0.0,9366.0,9368.5,18721.0,19664.4,18707.0,11232.9,172074.68,39694.98,37500.0,0.0,9363.5,0.0,18058.08,33960.6,9387.0,0.0,9387.0,281.865,0.0,0.0,0.0,0.0,9373.445,20422.26,9363.0,0.0,0.0,281.28,9362.5,0.0,0.0,0.0,0.0,0.0,9368.0,0.0,0.0,0.0,0.0,0.0,0.0,0.0,0.0,0.0,0.0,9390.0,0.0,0.0,18776.0,9387.0,0.0,18742.0,0.0,37459.0,18738.0,0.0,9564.54,0.0,28094.0,9365.0,9362.0,46764.5,5796.69,9347.0,0.0,0.0,1401.15,93.39,18678.5,0.0,0.0,0.0,4948.61,19418.51,0.0,70396.105,0.0,126877.74,75849.205,17361.24,3453.21,0.0,0.0,18683.0,27907.77,4854.42,10732.95,15589.46,9342.0,9339.0,0.0,0.0,74682.5,18685.0,2240.84,65403.0,15981.855,0.0,0.0,37376.0,29429.66,74449.96,109676.06,155589.29,196960.97,111413.61,127925.52,321920.52
2019-05-14,9410.0,9410.0,0.0,0.0,30729.11,18892.0,1323.7,0.0,0.0,0.0,9437.5,9440.5,0.0,9449.5,28332.0,0.0,94537.0,31282.035,48534.53,56652.0,0.0,19964.04,9409.0,0.0,9413.0,18825.0,0.0,849.11,0.0,10001.58,20318.225,18907.0,7482.555,0.0,0.0,9456.0,0.0,17142.51,35700.46,18942.0,0.0,37846.0,75746.0,9454.0,11144.74,9460.0,85158.0,18930.0,259253.025,96322.96,187179.78,61390.805,144170.17,57693.2,47433.0,18967.5,66405.5,18984.0,208141.435,38024.5,0.0,284947.0,108981.115,28732.73,0.0,12171.52,68438.0,19010.0,0.0,0.0,0.0,19492.425,9510.5,28519.5,0.0,0.0,2472.04,19008.0,0.0,95018.5,9497.0,0.0,37955.5,0.0,0.0,9471.0,0.0,0.0,17968.3,9460.0,9464.0,9465.5,0.0,0.0,42067.1,29627.32,18959.0,0.0,0.0,8142.87,18944.0,24516.89,37906.5,0.0,28421.5,0.0,18957.0,180105.5,56948.385,0.0,9501.0,19089.47,37916.0,31086.84,18987.495,18986.0,30266.815,0.0,9481.0,0.0,28438.5,41929.12,0.0,0.0,94.86,9499.0,57012.0,9495.0,9496.0,9485.0,9491.0,18983.5,9497.0,28486.0,0.0,39062.62,10059.93,18982.0,9498.0,0.0,9492.0,95.01,9505.0,19013.0,0.0,38072.0,66683.0,0.0,19025.0,0.0,9510.0,0.0,0.0,0.0,95.245,9523.12,0.0,9520.0,9515.0,0.0,19023.0,0.0,0.0,0.0,19024.0,0.0,9505.0,0.0,0.0,0.0,9491.0,60747.72,9490.0,1138.62,9482.0,0.0,284.46,8820.29,0.0,43034.89,28453.0,0.0,18973.0,0.0,18990.0,0.0,18988.0,0.0,0.0,13209.17,9503.0,0.0,0.0,19015.0,0.0,0.0,0.0,9501.0,0.0,0.0,0.0,22057.24,0.0,0.0,28553.5,28540.5,9507.5,29015.65,9506.0,47525.5,9703.18,0.0,0.0,0.0,0.0,9501.0,0.0,0.0,0.0,0.0,19020.5,9515.0,38075.0,9905.84,53323.4,19054.0,34281.8,0.0,0.0,28555.0,7422.11,0.0,38048.0,0.0,9518.0,0.0,0.0,0.0,9517.0,0.0,0.0,5805.15,5615.03,1141.56,0.0,28537.0,666.12,2949.415,29676.52,2851.2,0.0,0.0,29517.565,0.0,0.0,0.0,0.0,0.0,37951.0,0.0,9494.5,9493.0,9489.0,0.0,0.0,0.0,18998.5,9497.0,18996.0,0.0,56959.5,0.0,9493.0,0.0,0.0,0.0,0.0,18948.0,568.32,9476.0,19903.7,9573.32,9482.0,0.0,0.0,4456.305,0.0,1232.92,85340.5,5119.33,9477.0,9475.0,15915.64,94.76,9477.0,284.4,9477.0,18938.0,0.0,0.0,12021.82,56773.0,9461.0,9463.0,19115.28,0.0,0.0,28375.0,18918.0,189.22,0.0,9459.5,0.0,0.0,9460.0,0.0,9448.0,0.0,9442.0,40398.58,5942.43,56946.12,9428.0,110727.37,51284.81,36680.445,78197.135,13966.02,30567.61,19248.44,28963.345,37758.23,94.35,9445.0,18896.5,661.01,9442.0,0.0,9443.0,43943.34,9454.0,99928.68,0.0,0.0,9435.0,755.04,0.0,31494.86,19246.42,37748.5,18876.5,18868.0,0.0,0.0,0.0,0.0,1415.35,47682.1,37771.5,0.0,0.0,13018.23,0.0,10088.11,122465.0,9424.5,0.0,9413.5,31733.26,0.0,28253.28,48768.61,13183.5,18851.0,48730.33,122409.0,85695.1,14130.0,0.0,18856.0,38285.33,67583.93,20262.475,28642.8,9806.78,187532.22,118775.99,141788.03,253420.14,545288.93
2019-05-15,0.0,0.0,0.0,6522.95,9363.0,0.0,0.0,16047.495,18740.0,0.0,38439.85,37481.5,0.0,0.0,18737.0,0.0,0.0,0.0,0.0,0.0,9382.0,18742.0,0.0,9370.0,9384.0,0.0,0.0,9377.0,9349.5,37430.0,28087.5,0.0,9345.5,18682.0,24774.035,33318.895,67921.045,28840.335,22613.82,18660.0,9629.11,18687.0,18678.0,65434.3,43632.59,37512.0,9363.0,16194.6,9362.5,0.0,0.0,9359.0,18722.0,28057.5,0.0,9360.0,9371.5,0.0,0.0,18732.0,35279.9,9366.5,18751.0,0.0,0.0,562.14,0.0,18728.0,9370.0,9562.56,19143.36,18758.5,18747.0,46915.0,9389.0,19276.2,0.0,41470.64,9392.0,0.0,0.0,9408.5,0.0,10637.365,9404.5,0.0,9397.5,0.0,0.0,12582.08,9383.5,9380.5,0.0,9369.0,0.0,22578.61,0.0,18750.5,24106.87,75038.5,37537.0,0.0,282.0,47000.5,0.0,0.0,18824.5,18810.0,0.0,84615.5,18819.0,9404.0,28209.0,9414.0,0.0,18840.5,29336.13,0.0,0.0,0.0,0.0,0.0,9417.0,0.0,28286.5,942.3,0.0,9412.5,18839.0,0.0,25828.26,0.0,9439.5,0.0,0.0,18854.0,0.0,0.0,131945.0,0.0,28298.0,9431.0,18840.0,0.0,0.0,0.0,18861.5,0.0,9440.5,75527.0,19554.07,0.0,18902.0,0.0,9453.5,9450.5,9451.0,0.0,0.0,22125.04,18899.5,9453.5,0.0,18889.0,9452.0,0.0,0.0,0.0,0.0,9437.0,0.0,0.0,0.0,0.0,9431.0,0.0,179163.5,47160.0,0.0,0.0,0.0,0.0,0.0,0.0,0.0,9445.5,18872.5,0.0,9431.0,377.24,0.0,0.0,18848.0,0.0,28270.5,0.0,0.0,3859.87,0.0,18849.5,0.0,0.0,0.0,0.0,0.0,9442.0,9439.5,9435.0,0.0,7160.72,18850.0,9427.5,0.0,9433.0,0.0,9435.5,0.0,0.0,9431.0,18864.0,11694.82,0.0,28278.0,9426.0,9423.5,9419.5,18847.0,0.0,9418.5,0.0,9415.0,0.0,0.0,0.0,9409.0,0.0,9413.0,7532.0,0.0,7344.48,0.0,18943.7,84834.0,153070.065,9434.0,0.0,0.0,18876.0,9439.0,0.0,0.0,0.0,6981.9,0.0,0.0,0.0,9421.0,0.0,9420.0,0.0,0.0,0.0,0.0,0.0,0.0,9423.0,0.0,1789.61,9419.0,0.0,18836.0,9417.5,28247.5,0.0,0.0,28264.5,0.0,0.0,0.0,0.0,9427.5,0.0,0.0,0.0,0.0,10730.82,0.0,0.0,1978.62,0.0,0.0,18858.0,0.0,0.0,9439.5,0.0,0.0,0.0,0.0,0.0,0.0,9422.5,9426.0,0.0,0.0,0.0,0.0,0.0,9413.5,28250.0,0.0,0.0,0.0,659.89,0.0,0.0,0.0,9435.0,0.0,0.0,9439.0,0.0,0.0,0.0,0.0,0.0,8296.2,9428.0,0.0,0.0,282.72,18855.0,0.0,10354.7,9415.0,0.0,0.0,0.0,0.0,0.0,5176.6,658.21,0.0,18823.5,0.0,0.0,0.0,28259.0,60291.6,9430.0,0.0,9439.0,0.0,0.0,0.0,0.0,94.38,0.0,0.0,0.0,472.2,122791.5,0.0,0.0,9438.0,0.0,0.0,6993.74,0.0,0.0,0.0,0.0,0.0,0.0,0.0,9460.5,567.39,18907.0,661.92,0.0,0.0,28376.0,47394.62,47301.5,10308.04,16629.48,37774.0,58945.18,73018.81,159460.94
2019-05-16,0.0,0.0,0.0,0.0,0.0,28564.0,35302.8,0.0,0.0,0.0,9540.5,0.0,0.0,38249.0,123876.0,323383.22,62229.17,15381.9,57037.5,28645.75,0.0,38061.0,9525.0,0.0,0.0,5359.2,0.0,0.0,0.0,0.0,9560.0,2197.65,19100.0,19097.0,0.0,0.0,28629.5,61359.465,9558.5,9557.0,0.0,9542.5,295536.0,0.0,0.0,0.0,9540.5,9532.0,0.0,19072.0,9540.0,0.0,0.0,19095.0,38206.0,0.0,0.0,9540.0,9544.0,0.0,19131.0,286.89,0.0,19106.0,9557.5,28659.5,47787.0,2580.93,0.0,0.0,0.0,0.0,0.0,0.0,9580.0,0.0,0.0,0.0,0.0,28700.0,20472.38,47755.5,25025.43,0.0,9561.0,1626.05,0.0,0.0,0.0,0.0,9573.5,28767.0,50972.86,9700.58,0.0,0.0,0.0,0.0,0.0,0.0,19166.5,9588.0,0.0,0.0,0.0,9690.43,5086.94,48005.0,9604.5,0.0,0.0,0.0,0.0,0.0,0.0,26775.945,57577.5,0.0,4800.0,0.0,9598.0,0.0,0.0,0.0,0.0,0.0,5659.07,9575.0,0.0,0.0,0.0,0.0,0.0,0.0,9593.0,19192.0,9592.03,5372.64,163120.0,9595.0,0.0,9601.0,9599.0,0.0,0.0,172886.0,378965.5,182467.0,0.0,20396.52,0.0,23169.79,0.0,6632.28,384.44,0.0,0.0,288.45,0.0,0.0,0.0,48012.5,0.0,9604.0,0.0,15456.39,48371.46,9794.08,9607.0,10464.0,9596.0,0.0,9592.0,9591.5,9590.0,9592.0,9589.5,13430.9,1342.46,9588.0,9589.0,0.0,10552.8,0.0,18038.62,0.0,0.0,10078.0,67941.42,9600.0,19192.0,0.0,9597.0,0.0,0.0,0.0,0.0,0.0,0.0,0.0,0.0,0.0,0.0,9588.5,0.0,0.0,0.0,0.0,0.0,19186.0,0.0,12652.06,0.0,9570.0,191.46,4880.295,9570.0,0.0,10252.81,0.0,0.0,40240.3,9583.0,5366.68,0.0,9578.5,9578.0,0.0,0.0,9580.5,10725.36,38299.5,95.79,0.0,0.0,19148.0,0.0,0.0,0.0,0.0,9575.5,9579.0,0.0,0.0,0.0,11488.9,0.0,0.0,0.0,7082.54,0.0,47812.0,80416.42,6214.0,19124.0,0.0,9567.5,9556.0,0.0,9549.0,9550.0,9549.0,0.0,9545.5,9546.0,19090.5,0.0,0.0,29334.2,10234.62,478.17,0.0,52818.92,0.0,0.0,0.0,0.0,0.0,0.0,66933.5,0.0,47798.0,7742.72,9559.5,6120.32,38541.36,0.0,0.0,0.0,28717.0,0.0,9567.0,0.0,0.0,10059.8,9578.0,9578.5,0.0,19142.0,0.0,0.0,9570.0,15498.16,0.0,0.0,1147.68,0.0,9573.0,0.0,28747.5,45423.42,28753.5,57488.0,14377.5,9588.785,9592.0,2877.45,13138.61,9582.5,0.0,19352.14,9581.0,19154.0,0.0,9564.0,669.34,9566.0,9564.0,31831.47,9562.0,19124.0,0.0,0.0,0.0,0.0,19142.0,9572.5,19113.0,9558.0,191.22,9553.0,19107.5,28939.515,9547.0,95.45,9545.5,0.0,9545.0,0.0,19079.0,28619.0,0.0,0.0,28656.0,0.0,48446.105,21022.4,67593.7,0.0,47793.5,10606.05,33440.65,19099.5,9544.5,19093.0,13655.93,21674.0,0.0,9531.0,28590.5,9523.0,9521.0,9507.0,0.0,12546.065,42120.16,104899.365,153705.53,104771.66,66551.5,142758.5,48273.76,19053.5,104844.5,190701.0,371703.5,409598.5,335186.6,323879.5,515908.395
2019-05-17,9430.5,0.0,47992.4,94501.5,0.0,47219.5,160686.5,56664.5,39074.36,66012.5,86991.14,94221.5,47123.5,2384729.0,56980.34,9433.0,0.0,0.0,28289.5,0.0,0.0,20120.95,0.0,9395.0,0.0,0.0,282.555,0.0,28248.0,471.05,1131.6,18850.0,76279.85,0.0,0.0,75244.0,29438.105,112860.5,79638.115,65865.0,47020.0,9406.0,18786.0,5540.69,656.36,0.0,0.0,18760.0,28169.0,56684.34,0.0,9407.0,0.0,0.0,11581.14,0.0,30097.6,65847.0,10624.47,21348.65,9394.0,18781.0,37564.5,56597.065,10237.01,0.0,0.0,21046.75,56127.0,0.0,0.0,18677.0,0.0,663211.0,65232.57,28036.98,18655.0,18662.5,9337.0,28966.8,18716.0,9364.0,18742.0,46857.5,0.0,9393.0,47852.81,20034.08,0.0,22069.0,47902.5,0.0,18788.5,61526.7,84566.5,47037.0,9407.5,70058.8,18838.5,0.0,0.0,75128.0,9395.0,28199.0,0.0,18798.0,3572.38,0.0,9417.0,18836.0,37700.0,47066.0,0.0,9410.0,0.0,37602.0,0.0,19336.72,28145.5,0.0,9378.0,2529.9,18744.0,28125.0,9380.0,0.0,9383.0,18752.7,9377.5,18749.0,9458.7,59673.16,19005.77,74545.645,0.0,9357.0,9358.0,46797.5,9357.0,43406.28,54438.46,28081.5,0.0,38176.4,37483.0,0.0,0.0,28097.0,9372.5,18750.0,18734.5,9375.5,56256.0,28142.0,18759.0,37489.5,0.0,0.0,9369.0,0.0,21978.665,41135.56,18680.035,18689.5,0.0,0.0,10728.925,0.0,0.0,10273.45,9806.475,478742.62,0.0,9343.0,18680.0,0.0,186.64,19409.02,93314.0,35796.0,27951.0,30362.97,30060.3,62071.325,18607.0,18712.09,68691.47,201142.99,55876.87,55843.65,9301.5,651.7,279.36,18634.0,9309.0,9311.5,24301.515,9866.36,20922.75,1023.33,9298.5,9300.0,9300.5,9301.0,0.0,0.0,27892.0,2417.48,0.0,18573.5,64278.71,10028.88,46451.5,18586.0,0.0,0.0,9290.0,0.0,56321.61,9301.5,0.0,40157.06,0.0,0.0,18671.43,27884.0,18601.0,13026.3,19538.4,18605.0,12091.55,0.0,1023.55,0.0,0.0,4185.45,11354.99,0.0,9308.5,6705.36,0.0,0.0,0.0,37270.13,0.0,12128.35,9332.0,37610.35,27996.0,9333.0,0.0,9327.5,9321.5,18648.0,0.0,9331.0,0.0,653.415,0.0,0.0,9344.0,0.0,0.0,0.0,0.0,9617.73,933.53,0.0,0.0,9348.0,0.0,0.0,0.0,0.0,37317.0,33308.1,0.0,9331.0,9329.0,9327.0,0.0,18624.5,0.0,9403.605,9306.0,31907.125,27906.0,27907.5,1116.42,18605.0,9305.0,0.0,0.0,9302.0,0.0,29114.61,19994.385,3530.2,0.0,18581.5,9286.0,0.0,18587.0,9299.0,65781.21,2883.93,9303.0,18893.155,0.0,18628.0,0.0,9304.5,0.0,9304.0,18617.5,37236.0,0.0,28027.615,18621.0,9313.22,19742.08,37905.44,37554.86,0.0,0.0,27985.0,37337.0,0.0,0.0,0.0,18673.0,838.45,9307.5,0.0,9310.0,0.0,88512.2,82548.48,9288.0,27875.0,6870.9,0.0,0.0,83534.0,0.0,27836.0,9273.0,27832.5,9278.0,0.0,18565.0,18552.5,18558.0,27017.34,9282.0,0.0,27835.69,10854.93,37307.54,20797.64,18572.0,18558.0,37089.0,74158.5,83478.55,9839.2,37153.455,124310.54,45919.71,27884.0,43389.595,37128.0,37164.0,79047.42,107667.355,61449.03,112132.94,97029.98,130165.5,151671.26,118695.615,158173.005,139641.0,56784.8,98671.165,9306.0,192059.9,77228.665,65322.68,247584.85
2019-05-20,0.0,0.0,46592.0,0.0,37322.0,37237.0,0.0,8848.3,0.0,9300.0,9317.0,2610.44,9329.0,0.0,0.0,0.0,0.0,0.0,56131.5,11308.5,74706.0,28017.5,0.0,27996.95,11281.855,0.0,18697.0,0.0,0.0,0.0,4496.87,843.94,18770.0,9377.0,0.0,0.0,9370.0,28131.0,37507.5,18784.5,563.22,375.92,846.45,19293.1,9689.41,0.0,19305.075,942.3,0.0,9597.18,56810.44,9402.0,9885.65,9790.7,27815.55,35736.04,28301.5,0.0,18860.0,1886.4,2450.5,6689.1,18834.0,30805.75,77153.325,0.0,0.0,0.0,9427.0,0.0,0.0,0.0,0.0,18877.0,9439.0,4717.0,21205.75,28267.0,565.74,0.0,0.0,37694.0,20102.87,0.0,567.0,0.0,0.0,944.65,0.0,0.0,9444.0,9443.5,18848.0,28255.0,0.0,0.0,0.0,0.0,1034.44,0.0,14089.0,0.0,0.0,0.0,0.0,9404.0,0.0,47002.48,37560.5,375.22,0.0,749.4,0.0,9365.0,0.0,280.89,18724.5,9841.95,0.0,0.0,469.5,0.0,0.0,845.505,159619.0,0.0,9377.0,0.0,0.0,19238.25,4414.08,469.925,0.0,0.0,0.0,469.35,281.49,0.0,0.0,0.0,0.0,1315.7,0.0,11278.5,3758.4,0.0,0.0,0.0,0.0,940.3,470.35,470.35,9790.68,0.0,0.0,0.0,0.0,94.04,0.0,0.0,0.0,0.0,19284.45,9406.5,470.55,0.0,11760.75,9686.13,18807.0,0.0,0.0,9401.5,0.0,0.0,0.0,9407.0,0.0,0.0,0.0,0.0,0.0,0.0,0.0,281.62,469.85,281.88,9973.445,0.0,0.0,10719.2,9393.5,9582.88,0.0,282.09,0.0,0.0,470.35,0.0,0.0,0.0,0.0,657.86,9397.0,0.0,1972.53,0.0,845.45,0.0,0.0,0.0,9381.0,0.0,0.0,468.75,0.0,0.0,0.0,468.7,0.0,0.0,0.0,75012.0,0.0,655.94,9366.0,0.0,9375.0,0.0,0.0,18748.0,9369.0,9372.5,0.0,0.0,0.0,10866.38,56186.0,0.0,0.0,0.0,0.0,18714.5,9353.5,0.0,2152.11,0.0,9357.0,0.0,0.0,9350.0,0.0,0.0,0.0,9357.0,18704.0,9915.27,0.0,18705.0,18708.0,9354.0,0.0,0.0,0.0,0.0,0.0,0.0,0.0,0.0,9343.5,0.0,0.0,0.0,0.0,0.0,0.0,0.0,0.0,9340.31,0.0,0.0,934.3,0.0,9351.0,10005.56,0.0,0.0,0.0,467.55,0.0,0.0,841.05,0.0,0.0,0.0,0.0,9819.85,1216.85,0.0,0.0,0.0,0.0,18708.0,467.95,0.0,748.48,0.0,0.0,0.0,0.0,0.0,0.0,0.0,0.0,0.0,0.0,0.0,0.0,9735.46,1122.96,0.0,0.0,0.0,0.0,9355.0,0.0,0.0,9355.0,467.8,467.8,93.5,9349.5,0.0,9345.0,0.0,0.0,0.0,28007.5,4574.985,0.0,280.095,0.0,9336.0,9616.135,0.0,0.0,466.95,9342.5,935.13,0.0,0.0,0.0,0.0,0.0,280.47,0.0,18686.5,0.0,28028.5,0.0,0.0,0.0,9348.0,10851.54,9358.0,9363.5,9363.5,10403.74,9837.6,9371.0,8718.47,18734.5,9459.7,0.0,9363.0,9360.5,28077.0,19193.1,9356.5,28070.5,37415.5,28068.0,47236.55,47146.4,28093.5,0.0,34287.145,468.8,18724.0,35093.5,138925.18
2019-05-21,23561.5,9431.0,9441.0,0.0,18839.5,5466.5,47089.5,27843.775,0.0,0.0,0.0,9463.0,9477.0,9481.0,9480.5,9465.0,28042.92,0.0,0.0,0.0,9501.0,9503.0,9505.0,19004.0,19007.0,9502.0,9503.0,9508.0,9505.0,9504.5,37993.0,0.0,53686.315,50009.165,28560.0,7704.615,0.0,9521.0,0.0,28504.5,9497.0,19012.0,85625.4,38060.855,0.0,38047.5,0.0,13230.715,13972.35,9501.02,0.0,0.0,9499.0,19071.92,18972.0,0.0,9503.5,37998.0,9496.0,18964.0,0.0,0.0,0.0,123402.5,9493.0,0.0,9492.0,284.43,9477.5,9472.0,9480.5,36566.78,18944.0,12702.03,9488.0,0.0,94929.5,285.0,12822.025,18988.5,0.0,0.0,28495.5,189.89,47568.615,0.0,83586.0,9509.0,19005.5,0.0,19029.0,57101.0,0.0,66531.0,34397.41,0.0,13699.44,0.0,37984.0,9497.0,18988.0,0.0,0.0,0.0,9498.5,9511.0,47506.5,38001.0,37995.0,0.0,285.255,38213.65,0.0,0.0,0.0,25033.155,16278.91,0.0,0.0,9503.0,0.0,0.0,0.0,0.0,0.0,0.0,0.0,0.0,0.0,47409.0,9481.0,0.0,9489.0,9491.0,0.0,0.0,19069.885,9490.0,0.0,0.0,9480.0,0.0,28399.0,0.0,2460.12,0.0,20530.27,9467.0,9464.5,9566.74,0.0,0.0,9478.0,10421.65,9477.0,284.55,9480.0,0.0,0.0,0.0,0.0,9490.5,0.0,37948.685,5791.95,0.0,0.0,18977.0,8729.88,19838.735,0.0,0.0,0.0,9501.5,9497.0,0.0,0.0,0.0,18996.0,9499.0,13960.955,0.0,0.0,0.0,0.0,0.0,0.0,19010.5,0.0,0.0,0.0,0.0,0.0,0.0,9500.0,0.0,10168.35,15486.0,0.0,0.0,18919.905,0.0,380.2,0.0,2376.5,0.0,0.0,0.0,0.0,19008.0,0.0,0.0,28517.0,9507.0,285.09,9883.04,9497.0,9584.9,379.56,379.56,0.0,0.0,0.0,759.44,10253.44,0.0,0.0,0.0,0.0,0.0,0.0,9486.0,0.0,11007.16,0.0,0.0,9486.0,0.0,8158.82,0.0,0.0,1044.55,0.0,0.0,0.0,0.0,9493.0,4747.0,0.0,28491.5,9497.5,0.0,0.0,0.0,0.0,0.0,0.0,0.0,0.0,0.0,0.0,0.0,0.0,0.0,0.0,0.0,8739.08,0.0,9499.0,0.0,9500.0,0.0,0.0,19107.07,0.0,0.0,0.0,0.0,0.0,0.0,0.0,0.0,19026.0,19026.0,666.12,1903.6,10758.73,1713.78,0.0,11233.6,0.0,0.0,9520.0,0.0,9998.55,48656.145,3044.48,19041.5,0.0,0.0,0.0,9516.0,19038.0,9520.5,4760.5,4760.5,0.0,0.0,0.0,9526.0,38233.33,19068.0,0.0,0.0,0.0,0.0,0.0,19094.0,95.545,9556.0,0.0,0.0,26359.38,9553.0,0.0,0.0,763.84,3532.205,0.0,1145.52,3627.68,19096.0,572.67,0.0,1336.44,0.0,0.0,0.0,0.0,28653.0,0.0,0.0,0.0,9546.0,0.0,0.0,0.0,0.0,0.0,0.0,19079.5,0.0,28712.875,9540.0,7152.75,9537.0,0.0,19103.0,66883.5,24373.5,9560.5,26205.62,28701.0,95.63,9563.0,105253.475,19149.0,0.0,9579.0,0.0,19564.7,18891.785,671.055,9586.0,11504.3,0.0,9586.5,575.13,8534.21,9588.0,19173.0,27036.92,0.0,39885.16,44091.5,4408.41,22988.57,38307.5,57562.595,212509.6
2019-05-22,0.0,11887.375,6959.82,9538.0,18982.0,23728.5,0.0,0.0,0.0,0.0,3799.8,25167.4,3608.1,0.0,9497.0,9503.5,0.0,0.0,0.0,16217.64,9491.5,18984.0,9486.0,0.0,30690.31,9494.0,951.0,8558.55,5518.7,28588.0,9529.0,19056.0,28578.5,38087.0,0.0,28569.0,18644.96,16245.74,0.0,0.0,39030.615,29689.09,0.0,6540.59,0.0,28549.77,47440.0,0.0,0.0,0.0,9465.0,18923.04,9463.0,0.0,0.0,1895.8,0.0,9464.5,5405.31,18106.8,9463.0,0.0,0.0,28370.5,9453.0,9447.0,0.0,0.0,3861.38,42014.0,19874.09,65906.5,0.0,0.0,28188.0,28178.0,0.0,9397.0,0.0,0.0,32388.15,0.0,9387.0,15203.7,28164.0,0.0,0.0,0.0,0.0,9363.0,0.0,0.0,9347.0,9336.0,13269.9,0.0,28028.0,112191.5,28051.5,65479.0,56153.0,46778.0,44369.4,58648.675,74341.28,47890.48,0.0,0.0,5339.33,0.0,28459.06,0.0,466.95,0.0,0.0,0.0,12310.98,2144.52,0.0,0.0,0.0,0.0,18682.0,51335.0,101186.25,0.0,66372.16,93154.92,28210.39,18631.5,18634.0,0.0,76350.465,75229.4,18649.0,46618.5,0.0,27963.0,37312.0,18661.0,9336.5,17170.77,9315.0,27945.5,18632.0,9312.0,0.0,12940.12,0.0,0.0,0.0,9289.0,9284.0,0.0,9293.0,0.0,8443.89,0.0,28873.74,28030.12,27844.5,9004.405,34161.16,0.0,7142.52,9283.0,0.0,0.0,9278.0,0.0,0.0,41136.625,0.0,0.0,0.0,9289.5,15598.48,0.0,0.0,0.0,0.0,650.93,0.0,1022.01,0.0,0.0,0.0,0.0,2416.545,3720.0,0.0,0.0,9276.0,0.0,0.0,0.0,18556.0,0.0,0.0,0.0,0.0,9269.0,0.0,0.0,18549.0,0.0,1208.155,10494.44,0.0,0.0,0.0,0.0,18563.0,0.0,0.0,9265.0,0.0,0.0,0.0,0.0,0.0,1296.75,0.0,0.0,0.0,0.0,0.0,0.0,0.0,0.0,0.0,0.0,0.0,0.0,12587.7,20181.35,9263.0,0.0,0.0,0.0,9267.0,0.0,0.0,0.0,0.0,0.0,0.0,0.0,0.0,4076.24,9264.0,23200.5,9277.0,9283.5,18564.0,18555.0,0.0,0.0,0.0,0.0,9281.0,0.0,18551.0,20958.02,1205.75,2599.38,0.0,0.0,0.0,0.0,0.0,0.0,37107.5,27831.0,463.125,10003.61,0.0,44931.5,18523.0,0.0,0.0,0.0,0.0,0.0,9259.0,3424.35,37024.0,9252.5,3515.575,185.02,9257.0,3423.98,9254.0,19629.58,16105.7,46289.0,18530.0,3426.2,6110.715,0.0,9250.0,0.0,0.0,9259.0,37028.0,0.0,0.0,0.0,0.0,0.0,0.0,0.0,9263.0,0.0,0.0,31024.35,4167.675,37071.0,2965.76,0.0,2038.74,18537.5,10933.88,9257.0,15453.345,0.0,44782.52,0.0,36983.5,30129.68,0.0,9257.5,18871.59,0.0,0.0,9265.0,27837.0,0.0,18560.0,9744.75,0.0,0.0,9270.5,46362.0,9271.0,9275.0,834.12,0.0,5834.745,17427.61,0.0,27808.0,556.47,185.64,0.0,20728.31,0.0,35800.0,0.0,807708.0,389861.0,18566.0,0.0,0.0,0.0,26433.75,15390.54,2132.79,2410.85,9277.0,0.0,0.0,9284.0,9279.0,9281.0,1948.8,74330.8,11221.8,64705.15,25501.125,31096.2,20894.16,37158.0,30387.11,9295.5,37178.5,96949.26,120913.0,94188.82,174760.87
2019-05-23,1811.2,17675.96,22570.0,8985.0,53829.75,95063.83,0.0,46844.5,114303.51,26695.0,14622.05,8873.0,0.0,35227.36,35296.0,94740.24,53002.0,55138.76,44183.0,17719.5,0.0,61827.0,42349.205,17726.0,0.0,17682.5,0.0,26558.0,0.0,8833.0,70670.0,61860.0,26545.0,177106.0,17719.0,35371.5,73507.7,2124.0,24404.5,44129.5,26467.5,61690.5,132340.0,17609.5,79273.0,57664.93,26424.5,52813.5,132041.0,140132.455,8762.5,8763.0,26276.0,131391.0,298561.54,42973.775,26227.0,152810.995,33315.74,34998.5,32515.24,78710.5,17534.5,361979.95,1094368.2,8787.5,0.0,0.0,17588.5,79135.5,79210.5,26350.0,8797.5,26353.0,17572.0,17555.5,26735.16,17582.0,85705.9,57109.42,18135.82,211225.5,153993.275,8810.0,17651.0,8818.5,8822.5,8828.0,529.08,17633.5,0.0,58200.72,0.0,55917.36,35514.24,26508.0,44115.5,35349.0,17676.0,0.0,0.0,8843.0,8852.0,8676.92,0.0,17719.0,0.0,8860.0,8856.0,70813.0,44270.0,35417.0,26556.0,53024.5,26466.5,26513.5,35355.0,26493.0,26447.5,97062.0,105781.0,6426.19,27252.525,17637.0,17624.0,0.0,0.0,0.0,0.0,17631.5,9948.93,0.0,15409.5,8812.5,25654.88,1850.31,15767.19,17604.0,8810.0,0.0,44403.805,10221.47,8813.0,8809.0,0.0,54732.865,93174.08,8802.0,34671.18,26399.5,9159.36,0.0,34550.46,12165.12,17661.0,882.6,79469.5,13236.25,17648.5,8815.0,0.0,8834.0,0.0,14129.6,8833.0,8836.0,8828.0,8821.0,7407.12,26446.0,35278.0,0.0,79293.4,17699.05,61661.5,45400.5,26430.0,193793.0,34443.64,0.0,0.0,8813.0,35243.5,8811.5,27144.82,23983.325,105636.67,26436.0,26435.5,45661.88,32506.54,49077.13,17626.5,44056.0,53724.35,35226.0,26440.0,26461.0,58913.42,17646.0,0.0,0.0,44161.5,47479.9,8836.0,0.0,8817.0,17631.0,0.0,26438.0,8806.0,8806.5,506000.0,25266.87,35202.0,0.0,0.0,0.0,8808.0,0.0,0.0,8803.0,8893.04,17588.0,197657.355,26368.0,17573.5,43960.0,86735.78,0.0,17568.5,0.0,0.0,0.0,0.0,0.0,8791.5,0.0,0.0,8806.5,0.0,8804.0,9943.13,0.0,0.0,8812.0,0.0,8816.0,26478.5,26470.5,0.0,17636.0,0.0,0.0,0.0,8808.0,105663.0,96853.5,96863.0,211377.5,123254.5,54562.2,94193.065,17600.0,61538.0,17576.0,0.0,152504.96,45384.68,52798.5,35220.5,149687.0,79260.0,0.0,101539.825,26382.0,0.0,152345.5,44845.8,351.92,26382.0,42641.58,27519.83,8790.0,0.0,17582.0,87.95,35171.0,0.0,0.0,8799.0,8804.5,14015.67,81569.25,44011.795,8817.0,8816.0,17631.0,12255.24,26962.54,8813.0,17616.0,8802.0,0.0,8986.68,352.64,40367.12,0.0,38520.92,8810.0,8810.0,17619.0,17609.0,26384.0,8791.0,8795.0,0.0,38431.18,0.0,0.0,17572.5,8795.0,2638.8,87964.0,8804.0,70458.0,26409.0,8803.0,0.0,8806.5,0.0,8808.0,27030.49,0.0,9234.85,87.96,0.0,1319.325,8795.5,5101.14,0.0,0.0,17587.0,8789.0,3606.565,0.0,8805.5,13218.0,18906.61,17656.5,0.0,17688.0,0.0,8851.0,17693.5,8843.0,0.0,44296.34,0.0,0.0,53142.0,0.0,18183.75,36071.49,62215.0,45786.37,26700.5,8895.0,62251.0,44440.0,61177.65,17743.0,79819.5,48730.0,80047.89,83255.49,62116.5,25176.26,62097.0,35482.0,30414.88,27850.94,35466.0,50322.14,51061.82,231164.08,61050.64,53237.0,99174.26,211023.24
2019-05-24,0.0,0.0,0.0,89990.5,0.0,0.0,8961.5,357.44,17900.0,0.0,26850.0,0.0,0.0,8918.0,8916.0,0.0,0.0,17830.0,17801.0,0.0,0.0,17766.0,8887.0,8892.0,24003.0,27563.0,26729.0,0.0,0.0,2852.16,8915.0,17833.0,26762.5,27943.29,20533.9,76637.35,0.0,17815.4,0.0,17788.0,8889.0,8900.0,80104.5,71175.0,71163.0,0.0,17812.5,45095.78,151451.0,979.99,18601.55,8911.0,9636.36,44583.0,89112.0,17808.0,8903.0,24235.92,30824.98,8902.5,35586.0,35577.0,29519.84,0.0,8875.0,35441.0,8853.0,8857.0,0.0,0.0,8847.5,26528.0,0.0,44199.0,26506.0,8836.5,0.0,21618.85,0.0,0.0,0.0,17606.5,0.0,0.0,4310.04,0.0,8791.0,0.0,8806.0,8803.0,8795.0,17579.0,77010.92,104914.145,43965.0,35126.0,101811.0,13086.67,43875.0,0.0,0.0,17482.0,8729.0,0.0,17461.0,0.0,0.0,0.0,0.0,0.0,17466.0,0.0,8742.0,62070.3,0.0,80161.34,8751.5,8752.0,3323.86,17474.0,34975.0,52492.0,3497.2,0.0,19493.465,0.0,0.0,0.0,5243.1,17474.0,0.0,8733.0,24562.64,0.0,17467.0,17466.0,24628.02,0.0,0.0,0.0,0.0,872.5,9869.42,0.0,0.0,9082.28,0.0,0.0,8723.0,2529.38,17435.0,17431.5,8714.0,8715.5,26148.7,0.0,0.0,9849.645,8715.0,17772.56,0.0,0.0,8972.27,0.0,0.0,0.0,8700.5,695.68,17471.88,0.0,8698.0,8700.0,0.0,137214.77,0.0,5220.0,0.0,260.88,200160.5,78306.5,34800.0,26105.5,34835.0,26170.0,17444.5,17457.0,0.0,0.0,0.0,8736.0,0.0,17448.5,0.0,8725.0,95975.0,0.0,8724.0,3316.26,95989.5,1553222.0,0.0,0.0,0.0,0.0,17442.0,8888.36,17782.76,7235.11,8715.5,9860.34,35606.16,0.0,959.86,11255.54,8724.0,0.0,0.0,0.0,26142.0,17434.0,0.0,11498.44,2004.795,8715.0,0.0,210936.28,393227.02,191832.0,34866.0,8721.0,26133.0,34838.0,0.0,52249.0,34841.0,26124.5,35977.365,9055.4,43535.0,522.0,34820.5,8708.0,0.0,17411.0,17409.0,0.0,0.0,0.0,0.0,8708.5,26103.0,0.0,0.0,8700.5,0.0,29755.42,0.0,0.0,0.0,0.0,0.0,8701.5,18618.785,522.0,0.0,26341.32,0.0,0.0,10863.5,26101.5,8700.0,2783.36,10528.42,8959.97,0.0,26091.0,1565.46,0.0,8690.0,12780.64,0.0,17724.52,173.62,17359.5,11198.91,9548.0,17356.0,0.0,0.0,0.0,69414.0,26025.0,34698.0,34695.5,168820.23,0.0,0.0,0.0,8696.5,8688.0,17379.0,3647.7,0.0,0.0,9030.28,868.0,0.0,0.0,43391.5,78075.0,52054.5,26025.0,8674.5,8675.0,69402.0,31407.74,0.0,0.0,1825.32,26064.0,8689.0,8864.3,8691.0,0.0,8687.0,8689.0,52044.595,0.0,26155.41,74750.1,34958.94,34754.0,0.0,34782.5,8694.0,182497.5,0.0,52113.0,0.0,47525.565,8690.5,43493.5,69587.5,0.0,195011.73,131182.28,83522.08,6443.18,50838.78,45042.56,26083.5,43491.0,37825.65,17380.0,9555.9,17373.5,26070.0,26323.08,60973.2,58751.96,50092.12,52938.29,86973.5,60861.0,52169.03,87356.05,71901.84,43462.5,8685.5,36499.39,52156.5,35484.76,52381.52,8702.5,79388.04,0.0,91291.06,62835.37,8723.0,122193.5,17449.0,113407.5,70871.25,53167.7,218028.5,183526.81,174366.5,114330.46,244303.39,434262.955
2019-05-28,35036.0,18768.78,18437.4,8797.0,35128.0,16669.1,26371.5,29871.8,8778.5,8780.0,8777.5,8771.0,43967.5,17589.5,27796.88,3774.11,8786.0,11692.03,8792.0,8805.0,0.0,87.94,0.0,8801.5,8823.0,0.0,0.0,8808.5,0.0,8816.0,26436.41,18863.4,26444.0,52498.6,8792.0,1144.91,26414.5,0.0,21153.6,9344.0,527.46,8779.0,9918.335,10455.41,26359.0,17579.0,27002.315,5796.22,87.685,13775.04,17549.5,26338.0,8789.0,17560.53,46875.01,111536.905,17537.5,8766.5,52551.5,26470.7,43845.0,70102.0,26292.5,96369.0,8755.0,17488.5,61625.0,17533.75,8725.0,17439.0,0.0,21369.35,8724.5,228799.44,17975.38,8719.0,26187.0,8740.5,52437.0,3233.8,8742.0,8724.5,26124.5,8704.0,8715.0,8713.0,8717.5,10359.33,8719.5,8715.5,34932.0,35041.39,26260.0,8748.0,17482.5,12776.58,8763.0,71727.42,15351.25,35088.0,25682.775,41002.32,8758.5,23240.3,43881.5,26298.0,0.0,18499.795,20783.9,0.0,17543.0,0.0,0.0,17541.5,8765.5,4909.8,8761.0,0.0,8753.0,69932.5,87.35,10038.075,9163.6,17448.0,26189.0,28738.68,8746.0,0.0,8749.0,17482.0,9892.105,8757.0,0.0,8764.0,9460.04,8759.5,0.0,17513.5,0.0,0.0,26224.0,8746.0,17485.0,8733.0,17465.5,8724.5,17453.0,0.0,43684.0,28393.75,17481.5,39073.965,8741.5,0.0,8737.0,0.0,0.0,8741.5,0.0,8736.5,0.0,611.485,0.0,17501.0,0.0,0.0,0.0,0.0,8753.5,8758.0,8766.0,0.0,60432.2,8761.0,26288.0,26281.0,16392.29,526.03,0.0,8761.0,9113.58,26286.0,17595.56,34991.0,0.0,0.0,8751.5,0.0,0.0,8743.0,0.0,0.0,8738.0,0.0,0.0,0.0,17478.0,0.0,8744.0,8740.0,0.0,0.0,0.0,8742.0,3145.68,8732.0,8735.0,12575.08,0.0,0.0,1571.04,0.0,41449.8,26257.0,18722.5,0.0,26255.5,0.0,17685.11,8493.32,0.0,0.0,17523.985,8760.5,8757.0,788.31,0.0,1315.8,8764.0,2188.75,0.0,8756.0,54658.92,0.0,0.0,0.0,35192.6,43804.0,0.0,8759.0,0.0,23383.86,8756.0,8760.5,13408.98,0.0,37533.82,8780.0,0.0,0.0,17543.0,0.0,0.0,0.0,0.0,0.0,17534.0,0.0,9024.95,8767.0,7194.68,175.53,27711.52,0.0,8761.0,9729.44,8763.5,17516.0,15071.04,8769.0,8761.0,0.0,18998.765,0.0,34999.0,0.0,0.0,8749.0,0.0,0.0,8750.0,0.0,0.0,17465.995,8740.5,35400.005,15124.97,34965.0,8749.0,0.0,0.0,0.0,17843.92,17490.0,8744.0,8740.0,0.0,18192.32,0.0,8743.0,40090.47,17485.0,8741.0,17481.5,20803.27,17815.32,0.0,26176.0,698.24,8725.0,8714.0,0.0,9051.12,26124.0,8703.0,0.0,8715.0,8894.8,20833.24,6803.55,0.0,8729.0,0.0,19208.0,17475.0,0.0,0.0,17483.0,0.0,0.0,34095.26,0.0,8737.5,25690.69,8738.0,5683.75,6218.57,17517.0,8750.0,26758.67,50365.0,36640.05,39238.11,17478.0,10142.96,8754.0,0.0,0.0,0.0,5864.175,874.55,0.0,17492.0,8747.0,0.0,8745.0,0.0,8833.5,52480.5,34966.5,55540.58,11340.9,34918.5,36054.9,62086.91,17456.0,8726.5,52377.0,17807.28,16412.68,130416.64,40358.45,61137.5,8728.5,8723.0,17106.42,43631.5,35958.81,60678.1,0.0,61125.0,34907.5,26177.0,35250.0,13004.74,39205.09,63691.3,78516.0,105524.2,122460.61
2019-05-29,0.0,26649.2,17211.0,34650.41,31277.25,8563.5,55806.0,8597.0,40598.62,34237.0,52221.1,17129.0,25684.0,17121.0,34273.5,25674.0,17112.0,53321.6,17068.0,34124.0,34117.0,0.0,68157.2,68193.5,46951.5,17080.0,8541.0,17088.0,42719.17,17070.0,55417.635,59639.0,59671.5,43389.705,44290.935,34127.0,0.0,0.0,17051.0,38668.23,170.68,17065.0,17073.0,25748.51,17119.0,0.0,0.0,8752.46,8581.0,11570.25,4539.45,60010.5,34281.0,0.0,34289.0,17140.0,0.0,8585.5,25765.0,17168.0,42937.0,2403.8,0.0,0.0,8568.0,8569.0,18372.78,18183.9,31215.4,0.0,14930.72,25722.0,34298.0,17156.0,17168.0,51531.24,51463.0,55704.66,30196.64,27119.12,41540.14,0.0,85.64,0.0,10026.315,28535.27,0.0,0.0,8571.0,857.3,70155.04,25713.0,62923.84,51429.0,51409.0,17121.0,8555.0,64200.5,70560.23,8555.0,0.0,2645.23,0.0,2305.53,0.0,0.0,2806.32,17038.0,5961.9,8514.0,28560.64,11041.5,8482.5,0.0,8484.0,33604.92,8493.0,0.0,0.0,0.0,35231.35,8505.0,0.0,8493.0,4673.35,59511.0,21843.45,0.0,0.0,8477.0,16940.0,35980.75,0.0,8441.0,16894.0,42222.5,1521.45,8449.0,17498.93,16910.0,16908.0,16894.0,37965.5,8430.0,0.0,16867.0,0.0,0.0,0.0,0.0,8190.68,16893.0,8441.0,8518.35,0.0,8950.64,25371.5,16908.0,0.0,0.0,8466.0,33867.0,59325.5,33908.0,16962.0,0.0,25469.5,8487.0,0.0,42528.89,42406.5,8475.0,8470.0,0.0,1269.675,0.0,2033.76,23301.655,0.0,8469.0,0.0,0.0,0.0,92989.1,0.0,8564.85,0.0,16954.0,8483.0,34909.235,84917.0,0.0,0.0,0.0,0.0,42500.0,8507.5,0.0,0.0,16980.0,0.0,0.0,16974.0,17137.7,25481.0,8492.0,0.0,5521.75,33974.0,8495.0,11727.9,10201.4,0.0,0.0,0.0,0.0,0.0,17058.0,20926.37,22404.58,8560.0,9770.52,0.0,25667.0,8547.5,8538.5,34167.0,0.0,8545.0,0.0,17094.0,0.0,0.0,8546.0,8549.0,0.0,0.0,0.0,17135.0,0.0,17139.0,17157.0,17177.0,0.0,17172.0,8592.0,0.0,8600.0,8590.0,0.0,3092.76,8584.0,0.0,8577.0,8582.13,6177.85,42875.5,1372.0,8579.0,0.0,0.0,0.0,0.0,0.0,0.0,0.0,0.0,8562.0,0.0,0.0,5822.5,0.0,1112.93,8565.0,0.0,1456.05,0.0,4287.5,3171.27,2742.4,17128.0,8564.0,8565.0,8553.0,8553.0,2395.4,0.0,0.0,0.0,0.0,17124.0,8569.5,12941.23,42862.0,0.0,13282.4,2659.49,26178.05,17166.0,343.4,0.0,8576.0,8575.0,0.0,20855.85,32339.15,0.0,74010.45,97380.72,25757.5,25829.81,943.635,9954.36,42898.0,8572.0,17142.0,0.0,0.0,0.0,343.02,342.92,14745.99,25711.0,257.23,0.0,6002.51,16741.36,60194.415,43315.31,119042.3,34377.0,68737.0,19496.47,17857.79,2232.71,4549.0,6092.895,85.825,8674.82,8587.0,8587.0,0.0,8591.0,0.0,0.0,8603.0,17197.0,60199.5,43012.0,26084.34,34427.0,8619.0,25862.0,34461.5,43086.0,43100.5,26125.66,146597.5,8615.0,16024.45,38771.5,25849.5,8613.0,60284.0,60359.0,25910.0,8635.0,25903.0,8630.0,17263.0,2072.64,17281.0,16407.5,34655.44,17282.0,25916.0,29013.6,17282.0,259.275,17307.0,17287.0,141373.005,76505.3,45049.165,80800.29,78674.45,92937.095,71022.06,25969.0,164596.045
2019-05-30,0.0,0.0,69156.0,25903.0,0.0,154801.0,8607.0,34424.5,30792.89,0.0,0.0,17174.0,8594.5,1204.98,45404.34,17200.0,47289.0,0.0,8597.0,8597.5,42955.0,17180.0,2506738.25,160139.57,17185.0,94602.5,86.04,138011.24,17207.0,25814.0,14504.27,34342.0,51527.0,34364.0,0.0,42877.0,0.0,17110.0,25683.0,42814.0,8822.33,8569.0,51458.0,0.0,51422.0,25720.5,35743.87,34235.0,29046.96,17081.0,0.0,51234.0,8539.0,34142.0,13316.6,25587.0,34145.0,42679.0,8534.0,38394.5,25601.0,8531.0,42607.5,8523.0,34474.375,26560.0,0.0,102074.0,59549.38,17015.0,17010.0,8491.5,33975.5,8916.075,0.0,20918.88,8498.0,68004.5,5097.0,13580.0,27396.12,8478.5,43560.8,114176.06,16979.0,51159.41,59994.7,122250.0,75591.81,93794.0,50107.7,71108.8,67527.0,25286.7,147265.995,33802.0,42591.15,160111.0,33729.0,42205.5,25318.0,42970.69,42472.24,42351.5,59325.0,44119.18,143888.5,35410.24,25331.0,33741.5,97478.94,8422.0,8399.0,0.0,16787.0,431783.355,33581.0,58777.0,0.0,55354.3,838.7,96892.0,44247.135,42005.0,8412.0,39573.6,8422.5,25296.0,67466.5,16864.5,59052.0,84276.5,25302.0,25276.0,8425.0,16837.0,8417.5,9425.7,33741.16,16805.0,9238.9,37778.75,33551.0,33536.5,25157.5,58745.5,33580.0,75575.0,58834.5,102324.85,84129.5,0.0,8405.5,92433.0,50439.0,20251.795,42056.0,109370.0,23042.4,25214.0,11679.22,33600.0,25215.5,0.0,16810.5,50488.0,28876.88,0.0,46041.14,75911.0,33726.0,25289.5,58994.0,84.3,0.0,10109.4,75433.2,10272.5,0.0,112563.085,8416.0,65366.0,9420.88,0.0,8416.0,16850.0,33700.0,26123.9,16866.0,75893.0,52546.59,8432.0,0.0,8429.0,33740.0,16874.0,33732.5,67730.41,219598.0,0.0,67405.58,76019.0,8447.5,84470.0,16893.0,16887.0,25339.0,69420.9,8441.0,17733.5,168872.0,42120.65,0.0,0.0,67711.86,15192.0,42169.0,84.28,59053.73,33688.0,34119.0,160187.46,50628.2,16838.0,1877995.0,29223.93,58968.0,33698.5,16845.0,0.0,25303.5,8436.5,16871.5,8516.32,16873.0,42193.5,16878.0,33752.0,59048.0,271975.96,253231.0,67435.0,8426.5,109504.0,54233.42,8416.0,47697.37,42062.0,42064.0,33815.2,25308.09,134521.0,8417.0,42097.0,8418.0,37949.63,51423.37,56958.68,8414.0,25240.0,210362.0,33767.23,25286.0,33734.0,67486.5,118158.5,67477.0,75909.0,8435.0,25315.0,101193.0,16876.5,33763.0,54210.48,50658.0,3207.96,50634.0,25294.0,0.0,16852.0,42141.0,33717.0,0.0,42124.5,17012.4,0.0,33646.0,42053.0,168229.5,60745.19,101004.0,84246.65,16827.5,33814.78,162925.78,42020.5,58830.0,8410.0,16827.0,11777.5,0.0,58822.0,33612.0,8403.0,25215.5,0.0,0.0,50369.95,8395.0,8395.0,16800.0,16809.5,33600.0,16788.5,33663.94,33821.76,83985.5,48393.52,16878.97,8402.0,42027.0,33621.0,5043.6,33621.0,33714.08,0.0,42271.34,16837.0,0.0,33675.0,25241.0,42825.76,25234.0,51660.72,16832.0,25243.5,110787.18,67188.5,42455.24,9578.14,8402.0,26638.275,23376.97,33652.5,8414.0,25223.0,42021.0,67998.685,16808.5,96693.0,17898.52,0.0,25206.0,67204.5,728864.85,25180.5,16783.0,67251.96,116253.83,177599.28,42142.84,67141.5,42004.5,84005.0,32752.2,144122.675,151326.5,52742.605,58879.5,50446.5,53044.25,141456.065,135589.605,162179.97,100833.5,530989.22,135805.015,84316.65,84012.0,165317.0,151641.55,199707.54,167046.73,92424.0,325209.495,267328.57,523860.15,621019.425,438582.54,432933.78
2019-05-31,41412.68,18748.96,314637.52,115894.0,33150.0,18875.62,8285.0,116176.66,273223.5,24863.0,8285.0,33190.5,49835.0,97964.5,16614.0,58227.5,41646.0,16673.0,83358.0,66584.5,18544.14,8302.0,0.0,0.0,41510.0,12700.44,182956.2,8300.0,24907.5,92937.06,277878.2,182970.0,24944.5,46584.1,24928.0,24930.0,16600.0,27573.24,16608.5,8301.0,33211.0,41737.38,33187.0,8292.0,16570.0,17412.2,8301.0,0.0,7070.3,9568.43,10324.0,36431.8,0.0,25060.5,45973.5,66771.5,8347.0,24142.005,16698.5,16710.0,16713.0,58500.5,8352.0,25074.0,33418.5,16713.0,75770.45,33493.0,14576.54,41880.0,16743.0,40628.1,367835.44,337214.63,509217.01,56679.08,25043.5,33372.0,16678.0,0.0,50146.0,16712.0,161194.385,16729.0,34525.995,16712.0,16690.0,66994.23,10684.16,41716.5,33355.0,2335.76,41701.0,16681.0,24958.0,16615.5,0.0,75542.525,30758.2,0.0,33282.0,0.0,8319.5,83.2,10055.26,61307.92,8481.2,0.0,0.0,41557.0,16621.5,83171.5,33292.0,0.0,8341.0,0.0,0.0,39153.85,37350.3,25032.0,50025.0,8920.52,21683.5,24996.0,8336.0,8337.5,16679.0,8340.0,8332.0,0.0,29158.5,0.0,8334.0,91578.0,31719.75,8322.0,16630.0,0.0,0.0,16043.88,49900.0,16643.5,16637.0,0.0,8309.0,8313.0,41595.5,0.0,8325.5,749.97,41643.0,50051.77,68585.0,24950.0,0.0,8308.0,83880.395,16618.0,8311.0,8310.0,1163.26,8309.0,18947.36,39384.29,37132.29,33239.5,8311.0,0.0,8315.0,0.0,0.0,16641.0,24948.5,116311.0,41386.28,49850.5,33221.0,24924.0,117216.715,0.0,109002.16,9140.5,16610.0,0.0,8309.0,830.55,16611.5,0.0,17422.95,16589.0,24870.5,27196.685,0.0,0.0,16583.0,1160.74,0.0,8293.0,63179.66,37736.825,0.0,0.0,8295.0,24873.0,0.0,24879.5,9034.56,16579.0,16574.0,8285.5,8289.0,0.0,8294.0,0.0,8455.74,8291.0,8286.0,8284.5,20952.08,16563.0,0.0,8292.0,73527.43,16573.5,16568.0,24847.0,0.0,8284.0,0.0,0.0,16558.0,33093.0,18348.3,0.0,16545.0,26961.83,0.0,0.0,25303.52,24809.5,0.0,0.0,8271.0,8273.0,33080.0,8271.5,8270.5,8268.0,16539.0,0.0,0.0,8257.0,8255.0,8335.53,0.0,0.0,8254.5,24759.685,16523.5,0.0,16508.0,16496.0,0.0,8249.0,0.0,16506.0,16514.0,8256.0,0.0,0.0,16511.0,8243.0,0.0,0.0,19520.135,49408.0,9555.5,0.0,8235.0,16476.0,8233.0,8231.0,24687.0,0.0,33643.915,90466.0,276081.38,38091.325,29700.05,0.0,60106.82,32892.0,24672.0,16448.5,24661.0,41978.35,26941.52,8217.0,21681.96,11498.9,24639.0,8209.0,0.0,7712.715,16417.0,24715.11,22993.2,9118.65,49277.0,8210.0,24638.0,108589.18,16451.0,24689.0,106969.0,8234.0,32924.0,8230.0,33253.3,82315.0,42329.67,24715.0,8240.0,8249.0,173145.09,65930.5,8246.0,41233.0,16491.0,0.0,8235.5,24696.0,8234.5,8229.0,8220.5,32861.5,49280.5,16417.0,24617.0,73815.5,10331.35,32803.5,24604.0,32812.0,24598.0,16405.0,32805.0,8198.5,8199.0,24591.0,19447.48,0.0,26813.095,9998.12,8199.0,25085.7,16398.0,15889.57,16368.5,8525.92,0.0,57379.0,24588.0,16400.0,40979.0,33022.23,20481.5,8192.0,8188.5,8188.98,8191.0,10566.005,49161.0,49169.5,40966.0,58008.16,40970.0,61817.3,225337.14,57427.0,122211.9,57369.0,41047.92,40967.5,106846.26,109776.2,133147.99,204847.5,349932.995,396200.425
