,09:30,09:31,09:32,09:33,09:34,09:35,09:36,09:37,09:38,09:39,09:40,09:41,09:42,09:43,09:44,09:45,09:46,09:47,09:48,09:49,09:50,09:51,09:52,09:53,09:54,09:55,09:56,09:57,09:58,09:59,10:00,10:01,10:02,10:03,10:04,10:05,10:06,10:07,10:08,10:09,10:10,10:11,10:12,10:13,10:14,10:15,10:16,10:17,10:18,10:19,10:20,10:21,10:22,10:23,10:24,10:25,10:26,10:27,10:28,10:29,10:30,10:31,10:32,10:33,10:34,10:35,10:36,10:37,10:38,10:39,10:40,10:41,10:42,10:43,10:44,10:45,10:46,10:47,10:48,10:49,10:50,10:51,10:52,10:53,10:54,10:55,10:56,10:57,10:58,10:59,11:00,11:01,11:02,11:03,11:04,11:05,11:06,11:07,11:08,11:09,11:10,11:11,11:12,11:13,11:14,11:15,11:16,11:17,11:18,11:19,11:20,11:21,11:22,11:23,11:24,11:25,11:26,11:27,11:28,11:29,11:30,11:31,11:32,11:33,11:34,11:35,11:36,11:37,11:38,11:39,11:40,11:41,11:42,11:43,11:44,11:45,11:46,11:47,11:48,11:49,11:50,11:51,11:52,11:53,11:54,11:55,11:56,11:57,11:58,11:59,12:00,12:01,12:02,12:03,12:04,12:05,12:06,12:07,12:08,12:09,12:10,12:11,12:12,12:13,12:14,12:15,12:16,12:17,12:18,12:19,12:20,12:21,12:22,12:23,12:24,12:25,12:26,12:27,12:28,12:29,12:30,12:31,12:32,12:33,12:34,12:35,12:36,12:37,12:38,12:39,12:40,12:41,12:42,12:43,12:44,12:45,12:46,12:47,12:48,12:49,12:50,12:51,12:52,12:53,12:54,12:55,12:56,12:57,12:58,12:59,13:00,13:01,13:02,13:03,13:04,13:05,13:06,13:07,13:08,13:09,13:10,13:11,13:12,13:13,13:14,13:15,13:16,13:17,13:18,13:19,13:20,13:21,13:22,13:23,13:24,13:25,13:26,13:27,13:28,13:29,13:30,13:31,13:32,13:33,13:34,13:35,13:36,13:37,13:38,13:39,13:40,13:41,13:42,13:43,13:44,13:45,13:46,13:47,13:48,13:49,13:50,13:51,13:52,13:53,13:54,13:55,13:56,13:57,13:58,13:59,14:00,14:01,14:02,14:03,14:04,14:05,14:06,14:07,14:08,14:09,14:10,14:11,14:12,14:13,14:14,14:15,14:16,14:17,14:18,14:19,14:20,14:21,14:22,14:23,14:24,14:25,14:26,14:27,14:28,14:29,14:30,14:31,14:32,14:33,14:34,14:35,14:36,14:37,14:38,14:39,14:40,14:41,14:42,14:43,14:44,14:45,14:46,14:47,14:48,14:49,14:50,14:51,14:52,14:53,14:54,14:55,14:56,14:57,14:58,14:59,15:00,15:01,15:02,15:03,15:04,15:05,15:06,15:07,15:08,15:09,15:10,15:11,15:12,15:13,15:14,15:15,15:16,15:17,15:18,15:19,15:20,15:21,15:22,15:23,15:24,15:25,15:26,15:27,15:28,15:29,15:30,15:31,15:32,15:33,15:34,15:35,15:36,15:37,15:38,15:39,15:40,15:41,15:42,15:43,15:44,15:45,15:46,15:47,15:48,15:49,15:50,15:51,15:52,15:53,15:54,15:55,15:56,15:57,15:58,15:59
2019-04-01,96.138,96.138,95.817,95.697,95.91,95.889,96.226,96.151,95.97,96.267,96.194,96.206,-1.0,-1.0,95.99,-1.0,95.73,95.793,95.8,-1.0,95.82,-1.0,96.14,96.215,96.23,96.07,96.03,95.94,-1.0,95.85,95.974,-1.0,-1.0,96.165,96.425,96.455,-1.0,96.41,96.26,-1.0,96.125,96.08,-1.0,96.26,-1.0,96.19,-1.0,96.105,-1.0,96.069,96.132,96.135,96.17,96.11,96.11,96.065,-1.0,-1.0,-1.0,96.13,96.15,-1.0,-1.0,-1.0,-1.0,96.11,-1.0,96.32,-1.0,-1.0,96.3,-1.0,96.26,96.23,96.245,-1.0,96.277,96.31,96.31,96.457,-1.0,96.413,-1.0,96.35,96.34,96.355,96.475,96.56,-1.0,-1.0,-1.0,-1.0,96.619,96.79,96.73,96.615,96.588,96.53,96.48,96.5,96.475,-1.0,96.61,96.55,-1.0,96.52,96.52,-1.0,96.631,-1.0,96.515,-1.0,-1.0,-1.0,96.35,96.34,-1.0,-1.0,-1.0,96.403,96.362,96.37,96.29,96.218,96.28,96.299,96.26,-1.0,96.15,-1.0,-1.0,-1.0,-1.0,-1.0,-1.0,-1.0,95.98,95.97,-1.0,-1.0,96.06,-1.0,96.1,-1.0,96.275,-1.0,96.21,-1.0,96.352,-1.0,96.36,96.23,-1.0,-1.0,-1.0,96.275,-1.0,-1.0,-1.0,-1.0,96.19,96.23,-1.0,-1.0,-1.0,-1.0,-1.0,-1.0,-1.0,96.24,96.29,96.35,-1.0,-1.0,96.478,96.455,-1.0,96.41,-1.0,96.45,-1.0,96.5,-1.0,-1.0,96.47,-1.0,-1.0,-1.0,96.43,96.53,96.52,96.53,96.5,96.49,96.52,-1.0,96.56,-1.0,-1.0,96.596,-1.0,-1.0,-1.0,-1.0,-1.0,-1.0,-1.0,-1.0,-1.0,96.725,96.719,-1.0,-1.0,96.73,96.75,-1.0,96.677,96.68,96.697,-1.0,-1.0,-1.0,-1.0,-1.0,-1.0,-1.0,96.73,96.71,96.7,96.72,96.69,96.64,-1.0,96.725,-1.0,96.68,96.7,-1.0,96.735,96.74,96.77,-1.0,96.82,-1.0,-1.0,96.92,-1.0,96.77,-1.0,-1.0,96.83,-1.0,-1.0,96.79,-1.0,96.79,96.82,-1.0,96.84,96.879,-1.0,96.89,96.968,96.966,-1.0,96.92,-1.0,-1.0,-1.0,96.91,96.94,96.95,96.935,96.84,96.85,96.86,96.88,-1.0,96.91,96.996,97.013,97.029,97.07,97.022,97.07,97.077,97.095,97.1,97.118,97.11,-1.0,-1.0,-1.0,96.99,-1.0,-1.0,96.84,-1.0,96.81,96.845,96.837,96.87,96.91,-1.0,-1.0,96.954,-1.0,97.02,-1.0,97.01,97.0,96.94,-1.0,96.877,96.865,96.88,96.87,96.82,96.83,-1.0,96.88,-1.0,-1.0,96.81,96.81,-1.0,96.87,-1.0,96.89,96.885,96.91,-1.0,-1.0,96.9,96.91,96.88,-1.0,-1.0,96.822,-1.0,96.83,96.81,96.702,96.715,96.76,96.734,96.75,96.843,96.89,96.88,96.841,96.915,96.92,96.901,96.958,96.934,96.785,96.811,96.835,96.837,96.8,-1.0,96.801,96.792,96.752,96.734,96.792,96.883,96.888,96.8,96.806,96.865,96.907,96.95,97.005,96.948,96.908,96.9,96.937,96.93,96.942,96.91,97.009,96.96,96.957,96.984,97.023,97.043,97.036,96.987
2019-04-02,97.223,97.225,-1.0,97.3,-1.0,97.093,97.12,-1.0,-1.0,97.481,97.385,97.189,97.062,97.091,97.205,-1.0,96.984,97.011,97.019,96.96,96.91,96.867,96.91,96.961,96.968,97.051,97.126,97.313,97.332,97.31,-1.0,-1.0,97.615,-1.0,-1.0,97.665,97.635,-1.0,97.645,-1.0,-1.0,-1.0,-1.0,-1.0,-1.0,97.535,-1.0,-1.0,-1.0,97.56,97.59,97.701,-1.0,-1.0,97.659,97.496,-1.0,97.335,-1.0,-1.0,97.42,-1.0,-1.0,97.438,97.5,97.51,-1.0,-1.0,-1.0,97.15,-1.0,97.11,97.18,-1.0,-1.0,97.025,97.009,-1.0,97.037,-1.0,96.95,-1.0,96.87,96.94,96.97,96.84,96.71,96.669,96.705,96.672,96.67,-1.0,96.447,96.51,-1.0,96.575,96.59,96.51,96.65,96.52,96.553,96.579,96.616,96.526,96.269,96.22,96.25,96.48,96.505,96.49,96.538,96.55,-1.0,96.63,96.685,96.655,-1.0,96.617,-1.0,-1.0,-1.0,96.72,96.62,96.562,96.71,-1.0,-1.0,96.608,96.48,-1.0,96.54,-1.0,96.65,-1.0,96.73,-1.0,96.638,96.69,96.709,96.625,-1.0,-1.0,96.83,96.828,96.87,-1.0,96.83,96.85,-1.0,96.915,-1.0,-1.0,96.87,-1.0,-1.0,96.87,96.92,96.91,96.905,96.89,96.793,-1.0,-1.0,-1.0,-1.0,96.73,96.67,96.64,96.655,-1.0,-1.0,96.65,96.7,-1.0,96.635,-1.0,-1.0,96.506,96.4,-1.0,96.49,96.443,-1.0,96.427,-1.0,-1.0,96.57,-1.0,-1.0,-1.0,96.51,-1.0,-1.0,-1.0,-1.0,96.515,-1.0,-1.0,-1.0,-1.0,96.45,96.415,-1.0,-1.0,96.51,-1.0,96.49,96.48,-1.0,-1.0,-1.0,-1.0,96.49,-1.0,96.41,-1.0,-1.0,-1.0,-1.0,-1.0,96.66,96.57,-1.0,-1.0,-1.0,-1.0,96.565,96.542,-1.0,-1.0,-1.0,-1.0,-1.0,-1.0,-1.0,96.59,-1.0,-1.0,-1.0,-1.0,96.49,96.455,96.421,-1.0,-1.0,-1.0,96.53,-1.0,-1.0,-1.0,-1.0,-1.0,96.47,96.48,-1.0,-1.0,96.382,96.309,-1.0,-1.0,96.237,-1.0,96.33,-1.0,96.343,96.46,-1.0,-1.0,96.35,96.33,96.374,-1.0,-1.0,96.45,-1.0,96.53,96.5,-1.0,-1.0,-1.0,96.45,-1.0,96.51,96.4,-1.0,96.345,96.35,-1.0,96.33,96.315,96.26,-1.0,96.23,96.16,96.22,-1.0,-1.0,-1.0,96.295,-1.0,-1.0,-1.0,-1.0,-1.0,-1.0,96.31,-1.0,96.302,96.26,96.289,96.33,96.34,96.32,96.333,96.323,96.33,96.35,96.318,96.245,96.235,96.21,-1.0,96.21,96.1,-1.0,96.04,96.066,-1.0,96.21,96.177,96.199,96.261,96.267,96.286,96.293,96.354,96.301,-1.0,96.246,96.204,96.229,96.243,96.223,96.24,96.327,96.305,96.24,96.24,96.313,96.291,96.24,96.217,-1.0,96.162,96.245,96.229,96.141,96.197,96.097,-1.0,96.205,96.19,-1.0,-1.0,96.233,-1.0,96.265,-1.0,96.37,96.361,-1.0,96.35,96.38,96.32,96.282,96.255,96.315,96.33,96.343,96.315,96.304,96.295,96.271,96.255,96.293,96.238,96.186,96.165,96.175,96.103
2019-04-03,96.36,96.313,-1.0,96.163,-1.0,96.151,96.28,96.34,-1.0,96.08,96.015,96.018,96.08,96.14,96.135,96.18,96.203,96.226,96.122,96.114,96.182,96.08,-1.0,-1.0,95.955,95.976,95.987,95.845,95.85,95.8,95.702,95.595,95.61,95.58,95.447,95.497,-1.0,95.46,95.608,95.69,95.777,95.855,95.855,-1.0,95.81,95.83,95.985,96.1,96.12,-1.0,96.132,96.055,96.03,96.045,96.053,96.108,96.007,95.906,-1.0,-1.0,95.66,95.63,95.52,95.51,-1.0,-1.0,95.564,95.597,95.603,95.647,95.644,95.94,-1.0,95.94,-1.0,95.865,96.05,96.01,95.98,-1.0,96.035,-1.0,96.13,96.201,96.17,96.29,-1.0,96.09,96.11,96.065,95.998,96.09,96.145,96.23,-1.0,96.269,-1.0,-1.0,-1.0,-1.0,-1.0,95.975,95.87,95.77,-1.0,95.757,-1.0,95.71,-1.0,95.73,95.56,-1.0,95.497,-1.0,95.48,95.493,95.416,95.367,95.47,95.405,95.384,95.43,95.46,-1.0,95.36,95.43,95.33,-1.0,95.28,95.28,-1.0,-1.0,95.23,95.162,95.205,95.214,-1.0,95.13,-1.0,95.2,-1.0,95.31,95.36,95.35,95.365,95.38,-1.0,95.505,95.47,95.345,95.413,95.453,95.415,95.465,95.47,95.495,95.485,95.525,-1.0,95.581,95.651,95.529,95.388,95.335,95.33,95.41,95.359,95.46,95.41,95.4,95.423,95.379,95.391,95.38,95.44,95.459,95.369,95.427,95.362,95.281,95.314,95.343,95.338,95.323,95.147,95.117,95.16,-1.0,95.13,95.153,95.195,95.197,95.21,95.096,95.04,94.916,94.865,-1.0,94.898,94.863,94.844,94.901,94.84,94.832,94.78,94.73,94.77,-1.0,94.73,94.64,-1.0,-1.0,94.7,-1.0,-1.0,94.73,-1.0,94.697,-1.0,94.68,-1.0,-1.0,94.68,-1.0,-1.0,94.59,-1.0,94.547,94.51,-1.0,94.56,94.56,94.6,94.6,94.59,-1.0,-1.0,94.57,94.57,94.562,94.575,-1.0,94.52,-1.0,-1.0,94.52,-1.0,-1.0,94.51,-1.0,94.44,-1.0,94.359,94.357,94.398,94.372,94.36,94.341,94.367,94.32,94.275,94.277,-1.0,94.257,94.26,94.24,-1.0,94.125,94.084,94.13,94.13,94.107,94.054,93.963,94.01,94.0,94.005,-1.0,93.895,-1.0,-1.0,93.91,-1.0,-1.0,-1.0,-1.0,93.83,-1.0,93.82,93.8,93.83,93.96,93.962,94.0,93.98,94.058,-1.0,-1.0,-1.0,94.23,94.17,94.2,-1.0,94.22,94.208,94.19,-1.0,-1.0,94.286,94.25,94.225,94.283,94.25,94.166,94.155,94.201,94.195,94.198,94.209,94.198,94.205,-1.0,-1.0,94.4,94.4,94.362,94.359,94.36,-1.0,94.35,94.28,94.33,94.362,94.35,94.356,94.373,94.351,94.34,94.32,94.251,94.22,94.225,94.145,94.163,94.209,94.166,94.16,94.198,94.232,94.257,94.2,94.12,94.26,94.15,94.111,94.22,94.28,-1.0,94.315,94.41,94.366,94.337,94.373,94.344,94.38,94.323,94.328,94.37,94.295,-1.0,-1.0,94.3,94.356,94.35,94.375,94.36,94.334,-1.0,94.298,-1.0,94.33,94.272,94.214,94.082,94.014,94.013,93.996,93.942,93.889,93.873
2019-04-04,-1.0,-1.0,93.705,93.91,94.11,94.315,94.27,-1.0,94.297,94.37,94.33,94.326,94.208,-1.0,94.16,-1.0,-1.0,93.775,93.813,93.6,93.628,93.8,93.861,93.978,93.92,-1.0,-1.0,93.635,93.635,93.65,93.601,93.599,93.58,93.62,93.577,93.542,93.564,93.566,93.524,93.515,93.46,93.46,93.54,93.552,93.49,-1.0,93.46,-1.0,-1.0,-1.0,93.53,93.57,93.664,93.632,93.627,93.59,93.505,-1.0,-1.0,-1.0,-1.0,-1.0,93.258,93.23,93.2,93.131,-1.0,93.09,93.014,-1.0,92.975,92.95,92.96,93.003,93.0,93.265,93.285,-1.0,93.26,93.289,-1.0,93.27,93.262,93.206,-1.0,93.166,-1.0,-1.0,93.079,93.09,93.06,93.017,93.12,93.111,93.159,93.16,93.23,93.301,93.266,93.266,93.215,93.322,93.381,93.405,93.41,93.37,93.273,93.212,93.215,93.197,93.043,93.045,93.015,-1.0,93.085,93.285,93.289,93.291,93.379,93.358,93.325,93.23,93.205,93.31,-1.0,93.31,93.412,93.579,-1.0,93.655,93.623,93.61,93.679,93.67,93.598,93.71,93.71,93.739,93.734,93.691,93.649,-1.0,93.692,93.733,93.702,93.706,93.705,93.669,93.71,93.727,93.774,93.755,93.712,93.722,93.72,93.716,93.701,93.701,-1.0,-1.0,93.615,93.557,93.533,-1.0,93.42,93.345,93.29,93.21,93.2,93.341,93.388,93.466,-1.0,93.63,93.58,93.49,93.477,93.525,93.53,-1.0,-1.0,93.57,-1.0,93.46,93.41,93.56,93.53,93.49,93.483,93.46,93.49,93.46,93.43,-1.0,93.57,-1.0,-1.0,93.49,-1.0,93.52,93.59,93.59,-1.0,93.692,93.65,93.703,93.68,93.66,-1.0,93.59,-1.0,-1.0,93.55,-1.0,93.402,93.51,-1.0,-1.0,-1.0,-1.0,93.493,-1.0,-1.0,-1.0,-1.0,-1.0,-1.0,93.475,93.56,93.58,93.561,93.552,-1.0,93.571,93.59,-1.0,-1.0,93.546,93.56,93.553,93.586,93.564,-1.0,-1.0,93.626,-1.0,93.69,93.69,93.64,-1.0,-1.0,-1.0,93.605,93.585,93.594,-1.0,-1.0,93.66,93.6,93.497,93.457,93.585,93.574,93.648,93.753,93.64,93.617,93.689,93.65,93.635,93.612,93.599,93.604,93.603,93.6,-1.0,93.607,93.63,93.642,93.733,93.709,93.663,93.665,93.672,93.68,93.662,93.693,93.665,93.65,93.671,93.659,-1.0,93.659,93.632,-1.0,93.522,-1.0,93.566,93.46,93.5,93.48,93.483,93.6,93.66,93.64,93.69,93.72,-1.0,-1.0,93.647,93.66,93.635,93.605,93.555,93.505,-1.0,93.481,93.43,93.4,-1.0,-1.0,-1.0,93.314,93.385,-1.0,93.408,93.405,93.41,-1.0,-1.0,93.47,93.43,-1.0,-1.0,-1.0,93.4,93.45,93.42,93.338,93.38,93.38,-1.0,-1.0,-1.0,93.43,-1.0,-1.0,-1.0,93.51,93.51,-1.0,-1.0,93.425,-1.0,-1.0,-1.0,93.464,93.422,93.436,93.4,93.437,93.4,93.43,93.461,93.5,93.496,93.507,93.534,93.558,93.529,93.523,93.541,93.52,-1.0,93.473,93.529,93.604,93.64,93.625,93.586,93.607,93.628,93.592,93.647,93.567,93.6,93.6,93.615,93.587,93.592
2019-04-05,-1.0,94.43,-1.0,94.73,-1.0,94.52,94.707,94.67,94.63,94.612,94.55,-1.0,94.69,94.65,94.669,-1.0,-1.0,95.06,-1.0,95.309,95.375,-1.0,95.358,95.267,95.35,95.197,95.253,95.37,95.39,95.502,95.6,-1.0,95.693,95.672,-1.0,95.95,96.017,96.1,96.19,96.254,96.203,96.23,96.259,-1.0,-1.0,96.358,96.332,96.36,96.37,96.423,-1.0,96.535,96.581,96.588,96.541,96.6,96.618,96.574,96.427,96.44,96.436,96.418,96.69,96.578,96.599,96.579,96.613,96.666,96.62,96.62,96.584,-1.0,96.63,96.64,96.68,96.71,96.765,96.801,96.88,96.85,96.883,96.932,96.972,97.05,97.036,97.083,97.116,97.021,97.005,97.053,96.975,97.078,97.12,97.072,-1.0,96.923,97.037,-1.0,97.17,97.172,97.147,97.23,97.27,97.384,97.432,97.42,97.412,-1.0,97.435,97.43,97.64,97.632,97.567,97.573,97.53,97.405,97.317,97.104,97.114,97.13,97.04,96.96,96.922,96.878,96.775,96.81,96.96,96.975,96.935,96.89,96.975,97.002,-1.0,-1.0,-1.0,-1.0,-1.0,-1.0,-1.0,97.08,-1.0,-1.0,97.09,-1.0,-1.0,97.25,97.215,-1.0,-1.0,-1.0,-1.0,97.177,-1.0,-1.0,97.095,97.07,97.06,-1.0,97.11,97.11,-1.0,97.15,97.17,97.18,97.15,-1.0,-1.0,-1.0,97.198,97.18,97.264,97.26,97.233,97.19,-1.0,97.3,97.33,-1.0,97.34,97.37,-1.0,-1.0,-1.0,-1.0,-1.0,-1.0,-1.0,97.268,97.205,97.155,97.19,97.195,-1.0,97.21,97.27,-1.0,97.437,-1.0,97.42,97.408,-1.0,-1.0,97.57,-1.0,97.62,97.61,97.703,97.76,97.75,97.819,97.785,-1.0,97.855,97.879,97.903,97.91,97.906,97.903,98.056,98.05,98.08,98.048,98.027,98.01,98.052,98.023,97.984,98.06,98.08,98.109,98.072,98.152,98.211,98.242,98.224,98.17,-1.0,98.2,98.232,98.206,98.202,98.197,98.06,-1.0,-1.0,-1.0,-1.0,-1.0,98.242,98.356,98.327,98.29,98.25,98.25,98.24,98.145,-1.0,98.16,98.2,98.215,98.23,98.265,98.237,98.225,98.26,98.227,98.265,98.296,-1.0,98.366,-1.0,98.43,98.404,98.33,98.448,98.505,98.5,98.449,98.28,98.26,98.24,98.207,98.253,98.315,-1.0,98.349,98.466,-1.0,98.5,-1.0,98.36,98.28,-1.0,-1.0,98.28,98.25,98.23,98.24,98.385,98.407,-1.0,98.407,98.337,98.29,98.33,98.334,98.261,98.25,98.257,98.332,98.359,-1.0,98.415,98.41,98.362,-1.0,98.255,98.225,-1.0,98.19,98.19,98.2,-1.0,98.157,98.155,98.167,98.173,98.265,98.322,98.34,98.378,98.372,-1.0,-1.0,98.5,98.61,98.518,98.39,-1.0,98.357,98.394,98.385,98.401,98.44,98.459,98.397,-1.0,98.41,98.45,98.41,98.43,98.505,98.48,-1.0,98.41,98.4,98.405,98.438,98.47,98.442,98.434,98.54,98.51,98.571,98.577,98.513,98.436,98.454,98.45,98.444,98.513,98.528,98.501,98.442,98.425,98.423,98.498,98.507,98.484,98.442,98.463,98.416,98.451,98.43,98.495,98.55,98.609,98.629,98.648,98.67
2019-04-08,99.152,99.481,99.778,99.901,99.96,99.802,99.85,99.784,99.638,99.477,99.864,100.096,100.154,100.449,100.16,100.353,100.727,100.792,100.903,100.817,100.834,100.78,100.79,100.783,-1.0,100.61,100.211,100.31,100.105,100.257,100.165,100.08,100.09,100.124,99.992,99.935,100.095,100.038,100.015,99.978,100.046,100.0,-1.0,100.05,-1.0,100.15,100.165,100.292,100.46,100.53,100.507,100.376,-1.0,-1.0,100.425,100.41,100.29,100.415,100.353,100.295,100.176,100.15,100.086,100.127,100.135,100.115,100.233,100.277,100.27,100.317,100.373,100.36,100.34,100.258,100.21,-1.0,100.086,100.11,-1.0,100.075,100.24,100.305,-1.0,-1.0,-1.0,100.29,100.17,100.17,100.16,100.15,100.185,100.135,100.035,-1.0,99.978,100.013,99.958,99.999,-1.0,-1.0,99.94,99.93,99.798,99.785,99.645,99.59,-1.0,99.399,-1.0,99.29,99.132,99.16,99.237,-1.0,99.197,99.189,99.17,-1.0,99.24,-1.0,99.407,-1.0,-1.0,99.54,-1.0,-1.0,-1.0,99.375,99.48,99.453,99.384,99.338,99.37,-1.0,99.391,99.41,-1.0,99.48,99.455,99.545,99.508,-1.0,99.39,99.48,-1.0,-1.0,99.415,-1.0,-1.0,-1.0,99.36,-1.0,-1.0,-1.0,-1.0,-1.0,99.35,99.263,99.184,99.195,99.205,-1.0,-1.0,-1.0,99.116,-1.0,99.23,-1.0,99.39,99.4,99.312,-1.0,-1.0,99.351,99.35,99.382,99.433,99.44,-1.0,99.415,99.35,99.35,99.2,99.248,99.105,99.194,99.23,99.245,-1.0,-1.0,99.41,99.47,99.46,99.44,99.505,99.54,99.57,99.53,-1.0,99.405,99.47,99.49,99.51,-1.0,99.51,-1.0,99.61,99.63,-1.0,99.59,-1.0,-1.0,99.425,99.47,99.44,99.41,99.403,99.444,99.45,99.46,99.48,-1.0,-1.0,99.46,-1.0,99.36,-1.0,-1.0,-1.0,99.39,-1.0,-1.0,-1.0,99.43,-1.0,-1.0,-1.0,-1.0,99.4,99.352,99.302,99.3,99.41,99.36,99.37,-1.0,99.29,-1.0,99.425,99.415,99.457,99.46,99.41,99.469,99.425,99.44,99.487,99.505,99.508,99.455,99.5,99.52,99.41,-1.0,99.528,-1.0,99.455,99.44,99.491,-1.0,-1.0,99.451,99.358,99.429,99.478,99.475,99.398,99.29,99.35,99.35,99.367,-1.0,-1.0,-1.0,-1.0,-1.0,-1.0,-1.0,-1.0,99.34,-1.0,99.296,99.281,99.245,-1.0,-1.0,99.286,99.291,99.33,99.277,99.28,99.261,99.27,99.32,99.393,99.35,-1.0,-1.0,-1.0,-1.0,-1.0,99.252,-1.0,-1.0,99.244,99.269,99.275,99.26,-1.0,99.275,99.31,-1.0,99.37,99.415,-1.0,-1.0,99.42,99.449,99.434,-1.0,99.355,-1.0,99.29,99.314,99.32,-1.0,-1.0,-1.0,99.24,-1.0,-1.0,-1.0,-1.0,99.395,-1.0,99.278,99.32,-1.0,99.36,-1.0,99.487,99.468,99.457,99.468,99.395,-1.0,99.405,-1.0,99.405,99.36,99.34,-1.0,-1.0,-1.0,99.34,99.367,99.44,99.463,99.501,-1.0,99.38,99.405,99.405,-1.0,99.36,99.377,-1.0,99.38,99.366,99.37,99.386,99.414,99.368,-1.0,99.388,99.327,99.305,99.242,99.307,99.328
2019-04-09,-1.0,98.616,-1.0,-1.0,97.99,97.875,97.655,97.647,-1.0,97.723,97.93,97.86,-1.0,97.88,97.967,97.92,-1.0,98.115,98.103,-1.0,-1.0,-1.0,-1.0,98.19,-1.0,98.28,98.223,98.262,98.331,98.13,98.14,98.155,-1.0,97.826,97.685,97.745,97.733,-1.0,97.704,-1.0,97.668,97.761,97.784,97.758,97.662,97.77,-1.0,97.627,-1.0,97.63,97.573,97.607,-1.0,97.63,97.724,97.916,98.04,98.01,98.026,98.05,97.97,97.871,97.78,-1.0,-1.0,-1.0,-1.0,-1.0,98.078,97.855,-1.0,97.78,-1.0,-1.0,97.62,97.685,-1.0,97.68,97.65,-1.0,-1.0,97.53,-1.0,-1.0,-1.0,-1.0,97.59,97.517,97.58,-1.0,97.743,-1.0,-1.0,97.71,97.772,-1.0,-1.0,-1.0,97.787,-1.0,97.627,97.59,97.53,97.525,97.59,97.65,97.745,97.774,97.703,97.646,97.615,97.713,97.7,97.7,97.64,97.625,-1.0,97.72,97.753,97.74,97.71,97.98,98.1,-1.0,98.0,97.975,-1.0,98.07,98.02,98.12,-1.0,98.115,98.157,-1.0,98.232,98.251,98.326,98.34,98.33,-1.0,98.41,98.507,98.575,98.59,98.589,98.685,-1.0,98.655,98.665,98.653,98.71,98.812,98.788,98.813,98.85,98.868,-1.0,-1.0,98.95,99.02,-1.0,99.01,99.02,-1.0,99.152,99.17,99.18,-1.0,99.243,99.22,99.253,99.245,99.27,99.21,99.29,-1.0,99.325,99.33,-1.0,-1.0,99.317,-1.0,99.35,99.382,99.385,99.405,99.325,-1.0,-1.0,99.37,99.418,-1.0,99.427,99.558,99.501,99.5,99.515,99.448,99.39,99.363,99.32,99.256,99.2,99.148,99.09,99.102,99.08,-1.0,-1.0,98.991,-1.0,98.99,-1.0,98.998,98.966,98.935,98.94,98.964,99.017,-1.0,99.01,99.073,99.007,99.0,98.99,98.987,98.95,98.995,98.975,98.921,98.91,-1.0,98.903,98.847,-1.0,-1.0,98.847,98.82,98.84,-1.0,98.78,-1.0,98.703,98.657,98.655,98.668,98.66,98.69,98.74,98.83,98.874,98.93,98.93,98.91,-1.0,-1.0,-1.0,-1.0,-1.0,-1.0,98.87,98.89,-1.0,98.86,98.84,98.811,-1.0,98.89,-1.0,-1.0,98.906,98.845,98.825,-1.0,98.81,-1.0,98.79,-1.0,-1.0,98.703,-1.0,98.61,98.65,98.57,-1.0,98.73,-1.0,98.722,98.718,98.72,98.722,98.715,98.715,-1.0,98.697,98.67,98.698,98.77,98.785,-1.0,98.745,98.77,98.73,98.719,98.694,98.683,98.675,98.656,98.71,98.713,98.67,98.655,98.625,98.611,98.596,98.533,98.507,98.448,98.43,98.465,98.532,98.536,98.45,98.509,98.533,-1.0,98.497,98.478,98.378,98.385,98.448,98.503,98.495,98.498,98.545,98.549,98.487,98.457,98.485,98.495,98.513,98.523,98.53,98.55,98.535,98.545,98.51,98.5,98.446,98.435,98.307,98.315,98.359,98.34,-1.0,98.33,98.27,98.25,98.391,98.409,98.381,98.469,98.47,98.49,98.505,98.545,98.545,98.51,98.503,98.57,98.586,98.61,98.622,98.595,98.6,98.587,-1.0,98.682,98.69,98.68,98.668,98.666,98.652,98.652,98.604,98.525,98.523,98.507,98.479,98.529
2019-04-10,-1.0,-1.0,99.03,99.535,99.776,-1.0,-1.0,-1.0,-1.0,-1.0,99.47,-1.0,-1.0,99.67,99.619,99.63,99.72,99.78,99.728,99.752,99.746,99.677,99.535,99.59,99.572,99.504,99.433,99.45,99.521,99.34,99.43,99.38,99.425,99.4,99.256,99.281,99.369,99.236,99.127,99.15,99.16,99.185,99.24,99.276,99.176,99.142,99.111,-1.0,99.028,99.109,99.11,99.145,-1.0,-1.0,98.965,98.957,98.93,-1.0,98.89,-1.0,-1.0,99.068,99.013,98.935,-1.0,98.998,99.0,-1.0,98.83,98.81,98.815,99.012,99.1,99.026,-1.0,98.842,98.79,98.84,98.865,98.77,98.82,98.755,98.77,-1.0,98.849,98.816,98.94,98.83,-1.0,98.87,-1.0,98.898,98.88,98.996,98.997,98.94,99.004,98.984,99.01,98.99,98.931,98.936,-1.0,98.84,98.825,98.915,98.933,98.83,98.815,-1.0,98.772,98.836,98.829,98.819,98.88,98.96,98.905,98.841,98.82,98.843,98.905,98.955,98.93,98.979,99.05,98.975,98.957,-1.0,98.855,98.79,98.835,98.8,98.83,98.85,-1.0,98.87,98.913,98.94,-1.0,98.912,98.858,98.862,98.835,98.9,98.98,99.01,99.028,99.032,-1.0,99.065,99.135,99.171,99.173,99.181,99.17,99.233,99.25,99.357,99.418,-1.0,-1.0,-1.0,99.464,99.389,99.298,99.215,99.28,-1.0,99.403,-1.0,99.55,99.547,99.514,99.58,99.53,99.54,-1.0,99.452,99.42,99.378,99.305,99.3,-1.0,99.314,99.305,-1.0,99.32,-1.0,-1.0,99.41,99.392,99.375,99.371,99.37,99.34,99.33,99.33,99.262,99.253,99.255,99.245,99.25,99.27,99.285,-1.0,99.25,-1.0,99.237,99.201,-1.0,99.183,99.161,99.13,99.142,99.102,99.175,-1.0,99.12,99.112,99.132,99.216,-1.0,99.155,99.135,99.2,99.192,99.124,99.08,99.147,99.15,99.17,99.13,99.067,-1.0,99.14,-1.0,99.095,99.055,98.93,-1.0,-1.0,-1.0,-1.0,98.94,98.96,98.98,-1.0,-1.0,-1.0,-1.0,-1.0,-1.0,-1.0,-1.0,98.97,98.935,98.935,-1.0,-1.0,98.94,98.955,98.91,-1.0,98.87,98.86,98.82,98.835,98.838,98.834,98.802,98.847,-1.0,98.86,-1.0,98.751,98.79,-1.0,-1.0,98.78,-1.0,98.737,-1.0,-1.0,98.632,98.61,98.65,98.605,98.627,98.638,98.528,98.561,-1.0,98.54,-1.0,98.5,98.53,98.507,98.49,-1.0,98.534,-1.0,98.51,98.5,98.415,98.485,-1.0,98.56,98.62,98.6,98.672,-1.0,98.715,-1.0,-1.0,98.7,-1.0,-1.0,98.73,98.767,98.74,98.74,-1.0,98.7,98.69,-1.0,98.72,-1.0,-1.0,98.715,98.71,98.71,98.829,98.93,98.9,99.032,98.983,98.985,98.959,98.95,98.98,98.904,98.85,-1.0,98.85,98.85,98.851,-1.0,98.786,-1.0,98.72,-1.0,98.627,98.695,98.69,98.69,98.683,-1.0,98.787,98.823,98.83,98.85,-1.0,98.845,98.865,-1.0,98.816,98.767,98.785,98.734,98.721,98.727,98.739,98.712,98.64,98.613,98.609,98.61,98.593,98.573,98.596,98.59,98.572,98.501,98.481,98.479,98.459,98.539,98.592,98.628,98.663
2019-04-11,98.64,-1.0,-1.0,-1.0,97.9,98.07,98.09,98.04,-1.0,98.125,-1.0,-1.0,97.94,-1.0,98.264,98.3,98.77,98.888,98.915,-1.0,98.91,-1.0,99.05,99.05,98.98,98.91,98.9,-1.0,98.954,99.104,99.16,-1.0,-1.0,-1.0,99.378,99.33,99.257,99.185,-1.0,99.15,99.145,99.153,-1.0,99.25,99.265,99.43,99.41,-1.0,99.525,99.52,-1.0,99.729,99.64,99.651,99.665,99.615,99.66,99.45,-1.0,-1.0,-1.0,99.425,99.395,99.45,99.47,-1.0,99.37,-1.0,-1.0,99.54,-1.0,99.58,99.49,99.44,99.41,99.47,99.509,-1.0,99.35,99.23,99.29,99.291,-1.0,99.255,99.224,-1.0,99.018,99.058,-1.0,98.96,98.888,98.905,-1.0,98.625,98.694,98.59,98.595,98.735,98.81,-1.0,98.802,98.77,98.86,98.985,99.055,99.137,99.12,-1.0,-1.0,-1.0,98.75,98.788,98.68,-1.0,98.599,98.618,98.635,98.64,98.58,98.62,98.545,98.505,98.575,98.535,-1.0,98.552,98.429,-1.0,98.45,98.44,98.073,97.954,98.093,98.07,98.135,98.222,-1.0,-1.0,98.237,-1.0,-1.0,98.125,98.05,97.969,97.97,-1.0,98.135,98.188,98.108,-1.0,97.948,-1.0,-1.0,98.0,-1.0,98.009,98.06,98.155,98.059,-1.0,98.063,98.034,98.08,98.1,98.17,-1.0,98.084,98.03,-1.0,98.09,-1.0,98.014,97.99,-1.0,98.105,98.09,97.98,97.822,97.782,97.7,97.763,97.768,-1.0,97.802,97.75,97.675,-1.0,97.855,-1.0,97.859,97.845,97.754,-1.0,97.83,-1.0,-1.0,-1.0,-1.0,98.117,98.07,-1.0,98.241,98.32,98.27,98.31,98.405,-1.0,-1.0,-1.0,-1.0,98.433,98.498,-1.0,98.5,-1.0,98.46,98.5,-1.0,-1.0,98.54,98.5,-1.0,98.46,98.433,-1.0,-1.0,-1.0,98.473,98.495,-1.0,98.613,-1.0,98.702,98.872,98.912,98.83,-1.0,98.55,98.618,98.757,98.74,-1.0,98.65,-1.0,98.78,98.81,98.705,98.64,-1.0,-1.0,-1.0,-1.0,98.557,98.545,-1.0,98.585,98.64,-1.0,98.825,98.904,98.89,98.9,-1.0,-1.0,-1.0,98.885,-1.0,98.865,98.876,98.87,-1.0,-1.0,-1.0,98.845,-1.0,-1.0,-1.0,98.865,-1.0,-1.0,-1.0,-1.0,-1.0,98.98,-1.0,-1.0,99.01,-1.0,99.025,-1.0,-1.0,98.895,98.813,98.8,-1.0,-1.0,-1.0,-1.0,98.89,-1.0,-1.0,-1.0,98.91,98.87,98.87,-1.0,-1.0,-1.0,-1.0,-1.0,98.73,-1.0,-1.0,-1.0,-1.0,-1.0,98.825,-1.0,98.844,98.846,98.839,-1.0,-1.0,98.892,-1.0,98.752,98.691,-1.0,-1.0,-1.0,98.676,-1.0,98.725,98.73,-1.0,98.91,-1.0,-1.0,-1.0,98.85,-1.0,98.83,-1.0,98.82,-1.0,-1.0,98.9,98.953,98.91,-1.0,-1.0,-1.0,-1.0,-1.0,-1.0,98.81,98.78,-1.0,-1.0,-1.0,98.77,-1.0,-1.0,-1.0,-1.0,-1.0,98.796,98.78,98.79,98.78,-1.0,-1.0,98.75,98.745,98.71,98.717,98.73,98.69,98.734,98.767,98.828,98.834,98.829,98.86,98.918,98.93,98.957,98.9,98.929,98.816
2019-04-12,102.802,102.711,102.688,103.03,103.13,103.191,103.032,103.15,103.142,-1.0,-1.0,103.675,103.71,103.848,103.757,103.88,103.74,103.784,103.684,103.531,103.544,103.569,-1.0,103.71,103.76,103.796,103.813,103.58,103.42,103.398,103.212,103.132,102.867,102.903,102.9,102.92,102.74,102.71,102.677,102.761,102.973,-1.0,102.963,102.905,102.9,102.88,102.88,-1.0,102.743,102.768,102.76,102.897,102.981,103.223,103.356,103.38,103.375,103.415,-1.0,103.38,103.167,103.237,103.335,103.173,103.173,103.022,102.94,103.01,103.03,-1.0,102.73,102.69,102.71,102.654,102.68,102.775,102.887,102.77,102.685,102.75,102.841,102.838,-1.0,102.925,-1.0,103.03,102.89,102.97,-1.0,102.941,-1.0,103.015,102.9,103.06,103.01,-1.0,102.821,102.765,102.828,102.9,-1.0,-1.0,-1.0,-1.0,102.89,-1.0,-1.0,102.85,102.845,-1.0,102.802,102.806,102.885,102.892,102.95,102.87,-1.0,102.95,102.931,102.93,102.9,102.885,102.87,102.9,-1.0,-1.0,-1.0,102.92,-1.0,103.0,102.925,-1.0,-1.0,102.92,102.98,-1.0,-1.0,102.945,-1.0,102.865,-1.0,103.075,103.1,103.3,103.27,103.268,103.327,-1.0,-1.0,103.39,103.35,-1.0,103.379,103.325,103.293,103.375,103.264,103.3,103.377,103.413,103.4,103.33,103.32,103.32,-1.0,103.295,103.353,103.395,103.4,103.455,-1.0,103.435,103.365,103.27,103.22,-1.0,103.29,103.25,103.277,103.34,-1.0,103.435,103.455,-1.0,-1.0,-1.0,103.34,103.39,103.45,103.519,103.584,103.728,103.753,103.796,103.858,103.96,103.94,103.94,103.975,-1.0,104.035,103.996,104.064,104.049,104.176,104.283,104.31,104.384,104.46,-1.0,104.625,104.7,104.728,104.734,104.788,-1.0,104.712,104.731,104.6,104.643,104.751,104.76,104.611,104.684,104.689,104.64,104.715,104.713,104.745,104.776,104.76,104.751,104.76,104.752,104.819,104.898,104.897,104.99,104.98,105.009,104.999,105.08,105.097,105.023,105.002,105.064,105.161,105.243,105.237,105.33,105.445,105.46,105.494,105.497,105.514,105.581,105.33,105.185,105.163,105.222,105.342,105.362,105.373,105.412,-1.0,105.449,105.457,105.422,105.498,105.558,105.565,105.578,105.668,105.703,105.715,105.8,105.757,105.685,105.719,105.756,105.682,105.747,105.77,105.744,105.764,105.833,105.966,106.017,106.05,105.979,105.931,105.702,105.667,105.709,105.729,105.618,105.569,105.457,105.49,105.525,105.83,105.98,-1.0,105.77,105.809,105.841,105.832,105.67,105.68,105.548,105.529,105.433,105.367,105.257,105.222,105.135,105.136,105.16,105.165,105.196,105.112,105.257,105.164,105.094,105.121,105.206,105.17,105.175,105.199,105.33,105.3,105.487,105.595,-1.0,105.749,105.766,105.835,105.79,105.936,105.959,106.02,106.01,106.064,106.262,106.29,-1.0,106.295,-1.0,106.24,106.073,106.07,105.841,105.754,105.944,105.61,-1.0,105.557,105.525,105.58,105.764,105.679,105.599,105.585,105.648,105.665,105.63,-1.0,105.481,105.504,105.495,105.564,105.48,105.491,105.46,105.428,105.4,105.386,105.394,105.326,105.339,105.302,105.31,105.286,105.212,105.228,105.31,105.407,105.402,105.36,105.33
2019-04-15,-1.0,-1.0,104.009,103.958,103.68,103.485,103.38,103.412,103.433,103.627,-1.0,103.52,-1.0,102.89,102.92,102.811,102.901,102.792,102.86,102.9,102.969,102.983,102.937,102.822,103.056,103.103,103.065,103.409,103.554,103.511,103.418,103.662,103.778,103.721,103.695,103.655,103.722,103.58,103.8,103.644,103.555,-1.0,103.513,103.48,-1.0,103.425,103.551,103.579,103.416,103.386,103.347,103.332,103.323,103.433,103.374,103.3,103.252,103.295,103.19,103.144,102.948,102.898,102.709,102.766,102.85,102.699,102.705,102.83,102.685,102.649,102.633,102.594,102.64,102.507,-1.0,-1.0,102.489,102.425,102.388,102.416,102.543,102.56,102.577,102.511,102.559,102.65,102.62,102.57,102.55,102.662,102.666,102.502,102.39,102.305,-1.0,102.257,102.234,102.246,102.33,102.375,-1.0,-1.0,102.587,102.45,102.46,102.503,102.421,102.253,102.135,102.061,102.15,102.071,102.055,-1.0,102.12,101.985,-1.0,101.993,101.95,102.12,-1.0,-1.0,-1.0,102.27,102.275,-1.0,-1.0,102.32,102.37,-1.0,102.391,102.515,-1.0,102.402,102.461,102.409,-1.0,102.528,102.447,102.3,102.301,102.268,102.351,102.339,102.34,102.21,102.35,102.35,102.366,102.29,102.213,-1.0,102.132,102.13,102.15,102.22,102.359,102.243,102.27,102.31,-1.0,102.225,102.23,102.15,102.193,102.187,102.169,102.245,102.136,102.118,102.2,-1.0,-1.0,-1.0,102.15,102.15,102.114,102.115,102.1,-1.0,102.11,-1.0,102.05,-1.0,-1.0,-1.0,-1.0,-1.0,102.083,-1.0,102.165,102.13,102.202,-1.0,-1.0,102.045,102.13,-1.0,102.12,102.159,102.199,102.13,102.127,102.11,-1.0,-1.0,102.18,-1.0,102.19,-1.0,102.235,-1.0,102.25,102.334,-1.0,102.28,102.3,102.27,102.25,-1.0,102.15,-1.0,-1.0,102.112,102.1,-1.0,-1.0,102.071,102.032,102.09,102.085,102.155,102.168,-1.0,-1.0,102.296,102.25,102.27,-1.0,102.347,-1.0,102.41,102.347,102.349,102.321,102.32,102.31,102.37,102.412,102.442,102.37,102.407,102.461,-1.0,102.4,102.41,102.46,-1.0,-1.0,-1.0,102.442,-1.0,102.416,102.471,-1.0,-1.0,102.415,102.348,-1.0,102.368,102.473,102.5,-1.0,102.5,-1.0,-1.0,102.44,102.452,-1.0,102.433,102.45,102.416,-1.0,102.46,102.447,-1.0,102.485,102.49,-1.0,102.48,102.458,102.443,102.351,-1.0,102.305,-1.0,-1.0,-1.0,-1.0,102.22,102.23,102.08,102.047,-1.0,-1.0,-1.0,-1.0,101.855,101.82,101.84,101.68,101.632,101.524,101.5,101.493,101.49,-1.0,-1.0,101.545,101.502,101.457,101.6,101.626,101.7,101.7,101.672,-1.0,101.725,-1.0,101.707,-1.0,101.71,101.71,101.76,101.705,-1.0,101.798,-1.0,101.72,101.68,101.778,-1.0,-1.0,101.66,-1.0,-1.0,101.74,101.66,101.675,-1.0,101.71,-1.0,101.68,-1.0,101.66,101.695,101.69,-1.0,101.7,101.657,101.692,101.712,101.689,101.733,101.752,101.744,101.736,101.744,101.77,101.793,101.783,101.798,101.789,101.73,101.704,101.631,101.71,101.78,101.872,101.922,101.966,101.902,101.925,101.95,101.951,101.942,101.921,101.938,101.92,101.993
2019-04-16,-1.0,101.985,101.913,101.86,101.925,101.847,101.67,101.56,101.465,101.457,101.57,101.28,101.25,101.315,101.44,101.42,101.629,101.705,-1.0,101.441,101.251,-1.0,-1.0,101.199,101.301,101.34,101.325,-1.0,101.31,101.29,101.389,101.379,101.433,101.473,101.488,101.43,101.429,101.386,101.433,101.44,101.463,101.47,101.78,101.726,-1.0,101.616,101.59,101.551,101.515,101.545,101.613,101.669,101.698,-1.0,101.693,101.729,101.688,101.814,101.859,102.03,102.1,102.04,101.95,101.925,101.914,101.925,101.983,102.02,102.0,101.98,101.981,102.011,102.014,102.004,101.957,101.897,101.901,101.905,101.885,-1.0,101.808,101.787,-1.0,101.915,101.94,101.861,101.876,-1.0,101.83,101.62,101.637,101.59,101.56,-1.0,101.493,-1.0,101.41,-1.0,-1.0,101.394,101.487,101.638,101.65,-1.0,-1.0,101.86,-1.0,101.64,101.665,101.583,101.555,101.517,101.581,101.6,101.541,101.478,101.55,101.553,101.553,101.584,-1.0,101.58,-1.0,101.58,101.58,101.594,101.625,101.59,101.57,101.533,-1.0,101.59,-1.0,-1.0,-1.0,-1.0,101.68,101.65,101.71,-1.0,101.845,101.875,101.9,101.95,101.956,101.953,102.021,102.044,102.045,-1.0,102.04,102.059,102.004,102.036,102.114,102.106,102.165,102.161,102.158,102.1,102.083,102.097,102.11,-1.0,-1.0,102.097,102.157,102.172,102.16,102.188,-1.0,102.144,102.142,102.081,101.927,-1.0,102.01,101.98,-1.0,102.02,102.03,-1.0,102.078,102.135,102.168,102.185,102.19,102.16,-1.0,102.05,102.04,102.027,102.045,102.053,-1.0,102.1,102.123,102.145,-1.0,-1.0,102.1,102.07,102.08,101.974,101.99,-1.0,-1.0,-1.0,102.0,101.97,-1.0,-1.0,102.02,102.0,102.037,-1.0,102.085,-1.0,-1.0,-1.0,102.04,102.035,102.03,102.02,101.97,-1.0,-1.0,-1.0,102.005,102.03,102.063,102.085,-1.0,102.005,102.035,102.007,102.0,101.965,101.96,-1.0,-1.0,-1.0,-1.0,101.95,101.95,101.93,-1.0,101.871,101.9,101.94,101.95,101.965,-1.0,101.9,-1.0,101.891,101.887,101.95,101.981,102.046,-1.0,102.047,102.037,102.049,102.014,101.927,101.92,101.927,101.912,101.922,101.919,101.884,101.92,101.938,101.872,101.945,102.0,102.009,102.015,102.062,102.07,-1.0,102.145,102.157,102.155,102.187,102.257,102.293,102.341,102.421,102.475,102.485,102.547,-1.0,-1.0,102.629,102.703,102.735,-1.0,102.745,102.785,102.677,-1.0,-1.0,-1.0,-1.0,102.64,-1.0,-1.0,-1.0,102.73,-1.0,-1.0,-1.0,102.585,-1.0,-1.0,-1.0,102.523,102.52,-1.0,102.575,-1.0,-1.0,-1.0,102.55,102.557,102.562,-1.0,-1.0,-1.0,-1.0,102.517,102.49,102.457,102.44,102.443,102.43,102.455,102.51,102.519,102.495,102.483,102.467,102.501,102.509,102.484,102.447,102.433,102.37,102.368,102.368,102.35,102.405,102.43,102.43,102.43,102.415,102.453,102.49,102.505,102.521,102.645,102.565,102.495,102.43,102.47,102.459,102.381,102.34,102.306,102.37,102.326,102.36,102.288,102.33,102.36,102.287,102.35,102.299,102.295,102.277,102.267,102.341,102.358,102.35,102.372,102.368,102.367,102.357
2019-04-17,103.03,103.375,103.597,103.733,103.62,103.621,-1.0,-1.0,103.48,103.468,-1.0,-1.0,103.675,103.698,103.918,-1.0,-1.0,-1.0,-1.0,-1.0,-1.0,103.84,-1.0,-1.0,-1.0,-1.0,103.89,-1.0,103.89,-1.0,104.09,-1.0,103.997,104.114,104.269,104.42,104.21,104.275,-1.0,103.93,103.87,-1.0,103.65,103.737,103.78,103.68,-1.0,103.653,103.564,103.457,103.561,103.685,103.683,103.706,103.747,-1.0,103.793,103.8,103.717,103.829,103.786,103.904,-1.0,103.83,103.893,103.978,103.997,103.795,103.811,103.906,103.868,103.805,103.67,103.66,103.59,103.555,103.573,-1.0,103.57,103.61,103.5,103.5,103.47,103.484,103.47,103.526,103.45,103.43,-1.0,103.245,103.14,-1.0,-1.0,103.18,103.205,103.315,103.39,103.499,103.513,103.549,103.488,103.535,103.515,103.391,103.305,103.42,103.442,103.424,103.331,103.31,103.387,103.372,103.353,103.472,103.447,103.418,103.42,103.43,103.365,-1.0,103.291,103.265,103.193,103.212,103.115,103.2,103.28,103.3,103.246,103.19,-1.0,-1.0,103.152,103.23,103.182,103.18,103.106,103.1,103.105,103.149,103.209,103.0,-1.0,103.034,103.04,103.068,102.963,102.925,102.853,102.9,102.856,102.897,102.739,102.7,102.662,102.615,102.577,102.777,102.82,102.788,102.715,-1.0,-1.0,102.667,102.6,-1.0,102.585,102.635,102.801,102.743,102.764,102.715,102.616,102.64,102.58,102.58,102.66,102.645,102.685,102.653,102.705,102.72,102.735,102.658,102.68,-1.0,102.64,-1.0,102.59,-1.0,102.37,102.289,102.274,102.361,102.37,-1.0,-1.0,-1.0,102.42,102.5,102.555,102.555,102.54,-1.0,-1.0,102.57,102.567,102.55,102.45,-1.0,-1.0,102.44,102.39,-1.0,102.44,-1.0,102.5,-1.0,102.41,-1.0,102.46,-1.0,102.42,102.375,102.385,-1.0,-1.0,102.524,-1.0,102.634,-1.0,102.595,102.65,102.7,102.67,102.671,-1.0,102.704,-1.0,102.847,-1.0,102.835,102.815,102.75,-1.0,102.81,102.8,102.81,-1.0,102.8,102.8,-1.0,102.845,102.8,102.78,102.74,102.685,102.63,-1.0,102.61,102.51,-1.0,102.447,-1.0,-1.0,102.54,102.56,102.59,102.56,102.57,-1.0,102.57,-1.0,102.47,-1.0,-1.0,102.52,-1.0,102.55,-1.0,102.445,102.385,-1.0,102.345,-1.0,102.29,102.336,-1.0,102.32,102.335,102.28,102.235,102.215,102.2,102.1,-1.0,101.99,102.11,102.11,-1.0,102.05,-1.0,102.06,102.08,102.005,101.98,-1.0,101.87,-1.0,101.785,101.78,101.725,101.82,101.765,101.769,-1.0,-1.0,101.8,101.773,101.76,101.78,101.816,-1.0,-1.0,-1.0,101.745,101.74,-1.0,101.69,101.645,101.69,101.7,-1.0,101.765,-1.0,101.76,101.72,-1.0,101.733,101.674,101.575,101.575,101.56,101.548,101.62,101.559,101.482,101.45,101.522,-1.0,101.58,101.578,101.643,-1.0,101.595,101.6,-1.0,101.547,-1.0,-1.0,101.73,101.67,101.66,101.638,101.65,101.682,101.67,101.735,-1.0,101.77,-1.0,101.911,101.878,101.85,101.864,101.934,101.9,101.862,101.91,101.988,102.01,102.003,-1.0,101.841,101.865,101.814,101.796,101.838,101.833,101.822
2019-04-18,-1.0,-1.0,-1.0,-1.0,-1.0,102.07,101.703,101.618,-1.0,101.828,101.869,101.929,101.984,102.12,102.178,102.065,102.047,102.06,102.114,102.14,102.285,102.17,102.185,102.22,-1.0,102.053,102.108,102.18,102.259,102.33,102.318,102.211,-1.0,102.125,-1.0,102.24,102.24,102.34,-1.0,102.35,102.425,102.41,-1.0,102.41,102.475,102.5,102.53,-1.0,-1.0,-1.0,-1.0,102.433,-1.0,102.507,-1.0,102.51,102.49,102.54,-1.0,102.62,102.645,-1.0,102.699,102.715,102.67,102.685,-1.0,102.69,-1.0,-1.0,102.74,-1.0,-1.0,102.68,102.745,-1.0,-1.0,-1.0,102.91,102.97,102.916,102.903,-1.0,-1.0,102.88,102.95,102.975,-1.0,103.055,103.103,-1.0,103.18,103.19,-1.0,103.08,-1.0,-1.0,-1.0,103.15,103.195,103.265,103.17,103.24,103.2,103.067,103.075,102.964,102.98,103.06,103.08,-1.0,-1.0,-1.0,-1.0,-1.0,-1.0,103.23,-1.0,103.213,-1.0,103.46,103.505,-1.0,103.645,103.6,-1.0,-1.0,-1.0,103.715,-1.0,-1.0,103.747,103.74,-1.0,103.721,-1.0,-1.0,103.66,103.62,103.57,103.57,103.61,-1.0,103.51,-1.0,-1.0,-1.0,-1.0,-1.0,-1.0,103.725,103.9,-1.0,-1.0,-1.0,104.026,-1.0,-1.0,-1.0,-1.0,-1.0,-1.0,-1.0,103.93,103.88,-1.0,103.775,-1.0,103.74,-1.0,-1.0,103.782,-1.0,-1.0,-1.0,103.804,-1.0,-1.0,103.862,103.84,-1.0,103.81,-1.0,103.79,103.84,-1.0,-1.0,103.74,103.676,103.685,-1.0,103.69,103.67,-1.0,-1.0,-1.0,103.83,103.91,103.9,-1.0,-1.0,-1.0,-1.0,104.07,-1.0,-1.0,-1.0,-1.0,-1.0,104.045,-1.0,104.08,-1.0,-1.0,-1.0,-1.0,104.24,104.17,-1.0,-1.0,-1.0,104.18,-1.0,-1.0,-1.0,104.2,-1.0,104.19,104.17,-1.0,104.2,-1.0,-1.0,-1.0,-1.0,-1.0,104.24,-1.0,-1.0,-1.0,104.159,-1.0,-1.0,104.22,-1.0,-1.0,-1.0,104.225,104.212,104.25,-1.0,-1.0,-1.0,-1.0,-1.0,104.125,-1.0,-1.0,104.042,-1.0,104.048,104.088,-1.0,104.035,104.018,-1.0,-1.0,-1.0,-1.0,104.045,-1.0,104.17,104.175,-1.0,-1.0,-1.0,103.915,-1.0,103.89,-1.0,-1.0,103.827,-1.0,-1.0,-1.0,-1.0,103.75,-1.0,-1.0,103.772,103.74,-1.0,-1.0,103.782,-1.0,103.76,103.733,-1.0,103.82,-1.0,-1.0,103.831,-1.0,103.864,-1.0,103.965,103.96,-1.0,103.918,-1.0,103.92,103.89,-1.0,-1.0,103.93,-1.0,104.01,-1.0,103.911,103.915,103.833,103.768,-1.0,103.63,103.65,-1.0,-1.0,-1.0,103.7,-1.0,-1.0,103.655,-1.0,-1.0,103.47,-1.0,-1.0,103.355,-1.0,103.63,103.655,103.695,-1.0,103.78,-1.0,103.869,103.83,103.916,103.855,103.84,-1.0,103.98,104.04,104.007,104.025,104.1,-1.0,-1.0,104.037,104.16,104.091,104.08,104.071,104.049,104.102,104.16,104.115,104.019,104.042,104.105,104.1,-1.0,104.085,104.121,104.203,104.145,104.197,104.22,104.26,-1.0,104.215,104.153,104.075,104.053,104.037,103.977,103.964,103.942,103.88,103.878
2019-04-22,105.27,105.677,105.42,105.42,-1.0,105.69,105.646,105.619,105.712,105.866,105.713,105.63,-1.0,105.49,105.233,-1.0,105.33,-1.0,105.22,105.11,104.92,-1.0,104.747,104.756,104.873,104.869,104.9,104.92,-1.0,104.832,104.83,104.93,-1.0,104.925,105.03,105.03,105.155,105.257,105.21,105.23,105.25,105.305,105.132,105.083,105.17,105.075,105.1,105.125,105.15,105.179,105.27,105.315,105.393,105.365,105.355,105.347,105.485,105.678,105.73,105.786,105.82,105.76,105.743,105.733,105.485,105.34,105.453,105.434,105.49,105.376,105.281,105.215,105.314,-1.0,-1.0,-1.0,-1.0,-1.0,105.51,-1.0,105.67,-1.0,105.752,105.855,-1.0,105.785,-1.0,105.85,105.737,105.769,-1.0,-1.0,105.52,105.485,-1.0,105.34,105.324,-1.0,-1.0,105.56,105.6,105.68,105.753,105.73,-1.0,105.7,-1.0,105.62,-1.0,105.622,105.706,-1.0,105.62,-1.0,105.72,105.737,-1.0,-1.0,105.68,105.735,105.81,105.86,105.812,105.75,105.788,105.88,105.875,105.927,105.905,105.87,106.075,106.089,106.025,106.07,106.1,106.06,106.059,106.087,-1.0,-1.0,106.06,106.08,106.064,106.07,106.085,106.058,106.098,106.124,106.091,106.294,106.388,106.4,106.385,106.39,106.443,106.477,106.439,106.485,106.6,106.64,106.71,106.681,106.704,106.702,106.71,106.777,-1.0,106.82,106.85,106.83,106.805,106.728,106.65,-1.0,106.73,-1.0,106.7,106.669,106.759,106.793,106.81,106.87,106.869,106.91,106.941,106.905,-1.0,-1.0,106.988,107.02,-1.0,-1.0,-1.0,-1.0,107.04,107.03,107.01,107.05,-1.0,107.06,-1.0,107.115,-1.0,107.04,-1.0,106.975,106.83,-1.0,-1.0,106.93,106.91,106.96,106.999,107.083,107.128,107.09,107.14,107.116,107.107,107.24,-1.0,107.093,-1.0,-1.0,106.975,107.015,107.11,107.13,107.145,107.04,-1.0,-1.0,-1.0,107.027,107.01,107.025,107.07,107.09,107.1,107.095,107.055,-1.0,-1.0,107.095,107.1,107.01,-1.0,-1.0,107.11,-1.0,107.157,-1.0,-1.0,107.192,107.282,107.244,-1.0,-1.0,-1.0,-1.0,107.27,107.205,-1.0,107.24,-1.0,107.231,107.2,107.11,107.063,107.055,-1.0,-1.0,106.965,-1.0,-1.0,-1.0,106.935,106.95,-1.0,-1.0,-1.0,106.9,106.805,-1.0,-1.0,-1.0,106.78,-1.0,-1.0,106.78,-1.0,-1.0,106.67,-1.0,-1.0,-1.0,106.604,-1.0,106.59,106.64,-1.0,106.635,-1.0,-1.0,106.6,-1.0,106.5,-1.0,106.4,106.29,-1.0,106.316,-1.0,-1.0,106.556,106.548,-1.0,106.546,106.58,106.572,106.575,106.62,-1.0,106.688,106.748,106.745,106.757,106.707,106.735,106.745,106.736,106.751,106.78,106.786,106.743,106.68,106.722,106.768,106.762,106.717,106.715,106.65,-1.0,-1.0,106.621,106.62,106.643,106.647,106.651,106.679,106.66,106.645,-1.0,106.717,-1.0,106.702,106.715,106.692,-1.0,106.742,-1.0,106.769,106.855,106.844,106.883,106.883,106.882,106.856,106.841,106.858,106.896,106.86,106.87,106.87,-1.0,106.85,106.885,106.882,106.898,106.913,106.973,106.975,106.957,106.986,107.016,106.992,106.894,106.815,106.762,106.93
2019-04-23,106.995,106.694,-1.0,107.0,-1.0,107.165,107.437,107.486,107.23,-1.0,106.835,-1.0,-1.0,106.802,-1.0,106.98,106.998,107.011,-1.0,106.895,106.755,106.45,106.43,106.319,106.155,106.235,106.109,105.834,106.028,106.15,106.11,106.07,-1.0,106.104,106.096,106.185,106.167,106.037,-1.0,106.06,-1.0,106.005,-1.0,105.91,105.853,105.815,105.744,105.655,105.615,-1.0,105.47,105.501,-1.0,-1.0,105.87,106.01,106.0,-1.0,-1.0,106.18,106.14,106.222,106.247,-1.0,106.39,106.31,106.4,-1.0,106.39,-1.0,106.44,106.59,106.588,106.628,-1.0,106.637,106.625,106.61,106.59,106.53,106.565,106.59,106.522,106.726,106.74,106.733,-1.0,-1.0,106.85,-1.0,106.89,-1.0,107.003,-1.0,107.17,-1.0,-1.0,107.03,-1.0,107.06,107.19,107.192,107.22,-1.0,107.26,107.38,-1.0,107.213,-1.0,-1.0,-1.0,107.19,-1.0,106.942,106.916,-1.0,-1.0,106.847,106.83,106.83,106.8,106.872,106.858,-1.0,-1.0,106.642,106.655,106.597,106.659,106.728,106.745,106.697,106.73,106.63,-1.0,106.713,106.702,106.714,106.672,106.578,106.67,106.791,106.83,106.951,106.968,107.085,107.05,106.999,107.022,107.084,107.114,107.087,107.061,-1.0,107.06,107.185,107.249,107.347,107.41,107.328,107.356,107.315,107.39,107.405,107.522,107.569,107.506,-1.0,107.36,107.357,107.371,107.28,107.344,-1.0,107.343,107.355,107.48,107.517,107.505,107.426,-1.0,107.42,107.388,107.383,107.265,-1.0,107.278,107.47,107.595,107.621,107.56,107.61,107.457,107.444,107.484,107.522,107.595,107.68,107.495,107.564,107.59,107.689,107.71,107.74,107.72,107.596,107.712,107.79,107.74,107.665,107.649,107.615,107.62,107.689,107.68,107.629,107.605,107.605,107.575,107.535,107.532,107.502,107.548,107.565,107.588,107.56,107.555,107.569,107.593,107.607,107.615,107.599,107.564,107.503,107.355,107.312,107.2,107.294,107.34,107.325,107.363,107.257,-1.0,-1.0,107.318,107.373,107.367,107.405,107.41,107.415,107.398,107.391,107.391,107.38,107.411,107.412,107.369,107.406,107.423,107.448,107.49,107.494,107.487,107.5,107.49,107.54,107.515,-1.0,107.545,107.548,107.555,107.556,107.562,107.583,107.585,107.677,107.691,107.699,107.7,107.687,107.787,107.804,107.781,107.823,107.803,107.785,107.752,107.807,107.845,107.83,107.812,107.776,107.791,107.747,107.437,107.491,107.46,107.449,107.48,-1.0,-1.0,107.337,107.332,107.302,107.29,107.29,107.24,107.267,107.25,107.252,107.232,107.237,107.198,-1.0,107.25,107.258,-1.0,107.227,107.213,107.19,-1.0,107.119,107.099,107.045,107.045,107.024,107.05,107.116,107.146,107.103,107.055,106.915,106.81,106.801,106.8,106.817,106.805,-1.0,106.843,106.74,106.797,106.897,106.86,106.828,106.89,107.001,106.92,106.96,106.927,106.86,106.91,106.89,106.877,106.933,106.955,106.93,106.94,106.922,106.909,106.897,106.944,106.935,106.943,106.935,106.925,106.936,106.937,106.99,106.975,106.968,106.976,106.935,106.958,106.937,106.947,106.866,106.809,106.745,106.755,106.853,106.874,106.915,106.875,106.885,106.867,106.86,106.85,106.846,106.784,106.71
2019-04-24,107.389,-1.0,107.129,-1.0,107.33,107.305,106.999,107.03,106.799,106.48,106.204,106.163,106.27,106.222,106.05,105.926,105.921,105.852,105.983,106.0,105.965,105.97,106.169,106.181,106.141,106.156,106.067,105.912,-1.0,-1.0,-1.0,-1.0,-1.0,105.325,105.25,105.113,105.09,104.931,104.985,105.055,105.058,104.988,104.856,104.957,-1.0,105.17,105.295,105.31,-1.0,105.39,105.593,105.694,105.755,105.696,105.765,-1.0,-1.0,105.92,-1.0,-1.0,-1.0,-1.0,105.815,-1.0,105.899,-1.0,-1.0,-1.0,-1.0,105.975,-1.0,105.65,105.538,105.408,105.545,105.615,105.68,105.75,105.83,-1.0,105.73,-1.0,105.525,105.505,105.517,-1.0,105.54,105.519,105.509,105.5,105.505,105.508,105.5,105.523,105.533,105.53,105.514,-1.0,105.5,105.5,105.522,105.525,-1.0,105.537,105.55,105.504,105.515,105.503,105.504,105.505,105.5,105.5,105.51,105.51,-1.0,105.505,105.53,105.523,105.56,105.68,-1.0,105.625,105.635,-1.0,-1.0,105.632,105.71,105.55,105.59,105.587,-1.0,105.535,-1.0,105.689,-1.0,-1.0,105.67,-1.0,-1.0,105.5,-1.0,-1.0,-1.0,-1.0,-1.0,-1.0,105.58,-1.0,-1.0,-1.0,-1.0,105.665,105.63,105.571,105.574,-1.0,105.59,-1.0,-1.0,-1.0,105.58,105.53,105.56,-1.0,-1.0,105.56,-1.0,-1.0,-1.0,-1.0,-1.0,-1.0,105.49,105.65,105.655,-1.0,-1.0,-1.0,-1.0,-1.0,105.5,-1.0,-1.0,-1.0,-1.0,105.505,105.475,-1.0,105.499,105.48,-1.0,-1.0,-1.0,-1.0,-1.0,-1.0,105.535,-1.0,-1.0,-1.0,-1.0,-1.0,-1.0,-1.0,105.585,-1.0,105.59,-1.0,105.563,105.696,105.799,105.72,105.67,-1.0,-1.0,-1.0,-1.0,105.515,-1.0,105.52,-1.0,-1.0,-1.0,105.46,105.435,105.475,-1.0,-1.0,-1.0,105.48,-1.0,105.514,-1.0,105.51,-1.0,-1.0,-1.0,105.495,105.46,105.436,105.387,105.18,-1.0,-1.0,105.2,105.2,105.1,105.09,105.058,-1.0,105.013,105.055,105.028,105.015,105.035,-1.0,105.063,-1.0,-1.0,-1.0,-1.0,-1.0,-1.0,104.995,105.01,104.995,104.995,104.984,105.04,105.0,104.995,-1.0,105.1,105.153,105.108,105.23,105.213,-1.0,-1.0,105.28,105.28,105.301,105.27,105.199,105.15,105.165,105.26,-1.0,105.255,105.325,105.239,105.19,-1.0,105.228,-1.0,-1.0,105.2,105.21,105.23,105.207,105.22,105.235,105.225,105.214,-1.0,105.085,105.05,105.016,105.07,-1.0,-1.0,104.971,104.96,104.955,-1.0,104.937,-1.0,105.08,105.04,-1.0,105.04,105.08,105.16,-1.0,-1.0,-1.0,-1.0,105.095,105.065,105.06,-1.0,105.045,105.03,-1.0,104.971,104.98,-1.0,104.97,104.95,104.83,-1.0,104.74,104.739,104.745,104.732,104.7,-1.0,-1.0,104.748,104.75,104.728,104.75,104.741,104.749,104.75,-1.0,104.73,104.74,104.756,104.742,104.783,104.77,104.69,104.659,104.634,104.63,-1.0,104.59,104.538,104.47,104.385,104.393,104.43,104.5,104.555,104.56,104.522,104.478,104.42,104.433,104.392,104.31,104.26,104.214,104.267,104.264,104.083,104.044,104.01,103.906
2019-04-25,103.92,-1.0,-1.0,103.765,103.5,-1.0,-1.0,-1.0,103.96,103.92,103.769,-1.0,103.79,103.814,103.855,-1.0,-1.0,-1.0,-1.0,103.75,-1.0,104.03,-1.0,103.89,103.82,103.831,103.933,103.92,103.81,103.857,103.795,103.784,-1.0,-1.0,103.672,103.59,-1.0,-1.0,103.453,103.39,103.377,103.37,103.379,103.36,103.3,-1.0,-1.0,103.17,103.12,103.145,103.17,103.288,103.353,103.51,103.48,103.61,103.619,103.617,103.57,103.573,103.552,-1.0,103.34,-1.0,-1.0,-1.0,-1.0,-1.0,-1.0,-1.0,103.535,103.47,-1.0,103.4,103.45,-1.0,-1.0,103.528,103.607,103.645,103.695,103.702,103.681,103.685,103.732,103.501,103.399,103.34,-1.0,-1.0,103.283,103.26,-1.0,103.574,103.675,103.749,103.733,103.767,103.748,103.843,103.71,103.836,103.905,103.96,103.853,103.767,103.64,103.638,103.702,103.795,103.755,104.003,104.0,104.001,103.994,104.003,103.948,103.85,-1.0,103.892,103.859,103.733,-1.0,103.713,103.7,103.807,103.857,103.95,-1.0,104.02,104.0,-1.0,-1.0,-1.0,-1.0,103.887,-1.0,103.975,103.952,103.902,103.904,103.95,103.925,-1.0,103.975,103.989,103.985,104.01,104.04,104.049,103.995,-1.0,104.04,103.963,103.955,103.98,-1.0,103.873,-1.0,-1.0,103.912,103.902,-1.0,103.867,103.837,103.83,-1.0,103.805,103.79,103.83,103.774,103.787,-1.0,103.806,103.795,103.79,-1.0,-1.0,-1.0,103.66,103.645,103.645,103.69,103.62,-1.0,103.668,103.71,103.694,-1.0,-1.0,-1.0,-1.0,103.73,-1.0,103.648,103.71,103.668,103.657,103.71,-1.0,103.64,103.574,103.59,103.595,103.57,-1.0,-1.0,-1.0,-1.0,103.62,-1.0,103.672,-1.0,103.645,-1.0,103.59,103.57,103.64,103.618,-1.0,103.6,103.629,103.662,103.668,103.647,103.597,103.542,-1.0,103.552,103.565,-1.0,103.58,103.546,103.57,103.58,103.588,103.555,-1.0,103.627,103.652,103.61,103.6,-1.0,-1.0,103.65,-1.0,-1.0,-1.0,103.667,-1.0,-1.0,103.6,-1.0,103.62,103.55,-1.0,103.59,103.619,103.52,-1.0,-1.0,-1.0,-1.0,-1.0,103.33,-1.0,103.33,-1.0,103.29,103.26,103.215,-1.0,103.17,103.205,-1.0,-1.0,-1.0,-1.0,103.07,103.09,-1.0,103.047,102.974,-1.0,103.041,-1.0,102.981,-1.0,102.959,-1.0,-1.0,102.81,102.855,102.847,102.88,102.846,102.825,102.806,102.8,102.862,102.925,102.933,-1.0,103.03,-1.0,103.0,-1.0,102.901,102.91,-1.0,102.684,102.69,102.723,-1.0,102.657,102.713,102.719,102.81,102.848,102.855,102.896,102.885,102.892,102.88,-1.0,102.89,102.903,102.863,102.88,102.85,102.846,102.832,102.827,-1.0,102.793,-1.0,102.7,102.739,102.722,102.718,102.677,102.625,102.623,102.62,102.585,102.469,102.445,102.375,-1.0,-1.0,102.45,102.53,102.522,102.605,102.555,102.656,102.72,102.848,102.921,103.01,103.02,102.89,102.9,102.917,102.829,102.769,102.75,102.8,102.832,102.787,102.82,102.797,102.763,-1.0,102.81,102.853,102.84,102.82,102.64,102.608,102.553,102.557,102.571,102.591,102.593,102.558,102.349,102.234,102.135,102.106
2019-04-26,101.422,-1.0,-1.0,-1.0,101.695,101.531,101.23,101.03,100.89,-1.0,100.447,100.306,100.292,100.15,99.893,99.99,-1.0,100.016,-1.0,100.38,100.478,100.614,100.763,100.685,-1.0,-1.0,100.391,100.44,-1.0,-1.0,-1.0,-1.0,-1.0,100.243,-1.0,-1.0,100.09,99.81,99.72,-1.0,-1.0,99.53,99.481,99.467,99.453,99.635,99.54,99.49,-1.0,99.257,-1.0,99.04,99.12,-1.0,99.142,99.159,99.15,-1.0,98.907,-1.0,98.932,98.895,98.865,-1.0,98.925,98.89,-1.0,98.78,98.7,-1.0,-1.0,-1.0,98.54,98.53,98.415,98.53,-1.0,98.653,98.693,-1.0,-1.0,-1.0,98.43,98.48,98.31,98.3,98.012,97.879,97.81,97.795,97.73,97.705,-1.0,-1.0,97.7,97.73,-1.0,-1.0,97.53,-1.0,-1.0,-1.0,-1.0,-1.0,97.677,-1.0,97.948,97.88,-1.0,97.88,-1.0,-1.0,98.139,98.151,-1.0,98.015,98.002,98.064,98.115,98.29,98.225,98.067,98.073,98.002,97.981,97.915,-1.0,98.08,-1.0,98.225,98.193,98.21,98.195,98.17,98.168,-1.0,98.137,98.177,98.173,98.238,98.25,98.057,-1.0,-1.0,-1.0,97.92,97.86,97.69,-1.0,-1.0,97.85,-1.0,97.93,97.89,-1.0,97.924,97.915,97.85,-1.0,97.87,97.858,97.86,97.85,97.75,97.83,-1.0,-1.0,97.767,97.797,97.815,97.847,97.83,-1.0,-1.0,-1.0,-1.0,-1.0,-1.0,97.44,97.435,97.44,97.455,-1.0,-1.0,97.448,97.43,97.417,97.425,97.493,97.53,97.55,97.54,97.6,-1.0,97.6,97.65,97.67,97.635,97.618,-1.0,97.65,97.65,-1.0,97.563,97.56,97.55,97.54,97.487,-1.0,97.55,97.574,97.687,-1.0,-1.0,97.726,97.712,97.691,-1.0,-1.0,97.65,97.72,97.71,97.715,97.654,97.6,-1.0,-1.0,97.45,97.43,97.401,97.35,97.42,97.44,97.44,-1.0,97.475,97.455,97.358,-1.0,97.45,97.42,-1.0,97.489,97.5,97.51,-1.0,97.452,-1.0,97.42,-1.0,-1.0,97.36,-1.0,97.5,-1.0,97.51,97.48,97.457,-1.0,-1.0,-1.0,-1.0,97.39,-1.0,-1.0,97.49,-1.0,97.563,97.59,97.62,-1.0,-1.0,97.52,-1.0,97.445,97.442,97.397,97.4,97.315,97.33,97.29,-1.0,97.285,97.156,97.117,97.32,-1.0,-1.0,97.315,-1.0,-1.0,97.483,97.6,97.707,97.66,97.557,97.627,97.691,97.722,97.543,97.558,97.59,97.622,97.611,97.588,97.558,97.477,97.4,97.4,-1.0,97.49,97.43,-1.0,97.5,-1.0,97.39,-1.0,-1.0,-1.0,97.445,97.472,97.507,-1.0,97.526,-1.0,-1.0,97.47,97.51,97.55,97.47,97.469,-1.0,97.61,97.58,97.605,97.645,97.702,-1.0,97.684,97.638,97.599,97.58,97.45,97.41,-1.0,97.37,97.43,97.46,97.427,97.505,97.504,97.47,97.5,97.46,97.502,97.46,97.53,97.47,97.423,-1.0,-1.0,97.46,97.55,97.482,-1.0,97.512,97.651,97.676,97.67,97.687,97.727,97.713,97.685,97.605,97.632,97.645,97.622,97.595,97.573,97.64,97.644,97.65,97.651,97.671,97.731,97.846,97.9,98.053,98.114,98.129
2019-04-29,-1.0,-1.0,98.084,-1.0,-1.0,98.16,98.08,97.938,97.64,97.745,97.778,97.78,-1.0,98.095,-1.0,-1.0,97.97,98.064,98.085,98.015,97.891,97.82,97.694,97.67,97.569,97.51,97.531,97.35,97.348,97.17,-1.0,97.502,97.735,-1.0,-1.0,-1.0,97.83,97.802,97.55,97.5,-1.0,97.39,97.4,97.35,-1.0,97.124,96.897,97.107,97.118,97.144,-1.0,-1.0,97.113,97.12,-1.0,-1.0,96.952,96.93,-1.0,-1.0,96.89,96.97,97.1,-1.0,-1.0,-1.0,97.115,97.105,97.03,96.99,97.0,-1.0,97.03,-1.0,-1.0,97.038,-1.0,96.96,96.91,97.059,97.08,-1.0,96.99,96.921,96.92,96.956,96.942,96.894,96.84,96.995,96.855,96.95,96.88,96.96,96.947,96.96,96.85,96.89,-1.0,-1.0,96.94,-1.0,96.953,96.939,96.859,96.832,96.85,-1.0,96.888,96.876,96.878,96.935,-1.0,97.0,96.995,97.028,97.18,97.237,-1.0,-1.0,97.43,97.483,97.485,97.59,-1.0,-1.0,97.633,-1.0,97.71,97.639,-1.0,97.4,-1.0,97.388,97.325,-1.0,-1.0,97.365,-1.0,97.393,97.29,97.38,97.405,-1.0,97.355,-1.0,97.353,-1.0,97.44,97.46,-1.0,-1.0,-1.0,-1.0,97.62,-1.0,-1.0,-1.0,-1.0,-1.0,-1.0,-1.0,97.68,97.6,-1.0,-1.0,-1.0,-1.0,-1.0,-1.0,97.55,97.59,97.595,-1.0,-1.0,-1.0,-1.0,-1.0,-1.0,-1.0,97.587,-1.0,-1.0,97.462,-1.0,97.502,97.53,97.53,-1.0,-1.0,97.575,97.58,97.69,97.75,97.645,97.617,97.638,97.727,-1.0,-1.0,97.823,-1.0,97.705,97.7,97.67,-1.0,-1.0,-1.0,97.62,-1.0,-1.0,97.642,-1.0,-1.0,-1.0,-1.0,-1.0,-1.0,97.59,97.62,-1.0,97.7,97.65,97.62,-1.0,-1.0,-1.0,-1.0,-1.0,-1.0,97.55,-1.0,97.635,-1.0,-1.0,97.61,97.58,-1.0,-1.0,97.58,97.57,-1.0,-1.0,-1.0,-1.0,-1.0,97.555,97.505,97.48,-1.0,-1.0,-1.0,-1.0,-1.0,97.565,97.58,-1.0,97.56,-1.0,-1.0,97.7,97.675,-1.0,-1.0,-1.0,97.68,97.64,97.62,-1.0,-1.0,-1.0,-1.0,-1.0,-1.0,-1.0,-1.0,-1.0,-1.0,-1.0,-1.0,-1.0,-1.0,-1.0,-1.0,-1.0,-1.0,-1.0,-1.0,97.4,97.41,-1.0,97.49,-1.0,97.53,97.5,-1.0,-1.0,97.493,-1.0,97.486,97.45,-1.0,-1.0,97.52,-1.0,97.47,97.45,-1.0,97.39,-1.0,-1.0,97.31,97.3,97.33,97.29,97.335,-1.0,-1.0,97.335,97.289,97.24,-1.0,97.15,-1.0,97.084,-1.0,-1.0,97.035,-1.0,96.88,96.9,96.94,-1.0,97.055,-1.0,97.07,-1.0,-1.0,97.03,-1.0,97.07,97.054,-1.0,97.055,-1.0,97.1,-1.0,97.01,-1.0,97.0,-1.0,97.02,-1.0,97.01,96.89,96.91,-1.0,-1.0,96.91,-1.0,97.027,97.062,97.042,97.06,97.01,97.068,97.15,97.171,97.151,97.168,97.173,97.187,-1.0,97.155,97.17,97.15,97.153,97.195,97.209,97.188,97.201,97.165,97.137,97.134,97.141,97.143,-1.0,97.106,97.096,97.044
2019-04-30,98.07,98.26,-1.0,-1.0,97.742,97.56,97.58,97.51,97.462,97.56,97.262,-1.0,97.03,-1.0,97.14,-1.0,-1.0,96.966,96.952,97.03,96.902,-1.0,-1.0,96.91,-1.0,96.723,96.636,96.685,96.677,-1.0,96.559,96.531,96.57,-1.0,-1.0,96.409,96.4,96.4,96.316,96.318,-1.0,96.398,-1.0,-1.0,96.136,96.046,95.893,95.717,95.504,95.447,95.32,95.287,95.285,95.543,95.676,95.76,-1.0,95.897,-1.0,95.869,95.94,-1.0,96.035,96.21,96.228,-1.0,96.19,96.168,96.17,96.17,-1.0,96.15,-1.0,96.088,-1.0,95.962,95.867,95.642,95.529,95.57,95.75,95.778,95.815,95.85,-1.0,-1.0,96.07,96.035,96.14,96.175,96.165,96.097,96.083,95.948,95.772,95.718,95.657,95.528,95.429,95.356,95.474,95.521,95.375,95.359,95.344,95.62,95.585,95.442,95.448,95.537,95.635,95.622,95.667,95.792,95.854,95.91,95.918,95.913,95.873,95.916,95.932,96.039,95.922,95.887,95.956,-1.0,-1.0,95.995,96.077,96.145,96.139,96.02,95.888,95.845,95.845,95.716,95.518,95.495,95.656,95.825,95.866,95.89,95.92,95.795,95.763,95.823,-1.0,95.84,95.845,95.8,95.66,95.72,-1.0,95.7,-1.0,95.69,95.68,95.61,-1.0,-1.0,95.668,95.687,95.65,95.615,-1.0,95.58,95.55,95.532,95.46,95.49,95.51,95.54,-1.0,-1.0,95.45,-1.0,95.535,-1.0,-1.0,95.543,95.66,95.657,-1.0,95.61,95.56,95.54,-1.0,-1.0,95.525,95.52,95.46,95.497,95.483,-1.0,-1.0,95.489,95.497,95.433,-1.0,-1.0,-1.0,95.41,95.401,95.34,-1.0,-1.0,95.46,95.484,95.49,-1.0,95.619,95.575,-1.0,-1.0,-1.0,95.65,-1.0,-1.0,95.71,-1.0,95.665,-1.0,-1.0,95.65,95.594,95.576,95.55,95.559,95.54,95.47,95.46,95.45,95.448,95.43,95.41,95.35,-1.0,-1.0,95.28,95.299,95.337,95.33,95.35,95.4,95.39,95.416,95.356,95.318,-1.0,95.29,95.242,95.19,95.149,-1.0,-1.0,-1.0,-1.0,95.197,95.189,95.189,95.198,95.179,-1.0,95.19,95.16,95.156,-1.0,95.07,95.09,-1.0,-1.0,-1.0,95.016,-1.0,95.03,95.03,95.04,95.017,95.047,95.051,95.06,95.06,95.1,95.105,95.122,95.124,95.062,95.018,95.039,95.044,-1.0,95.03,95.105,95.117,95.052,95.133,95.145,-1.0,95.216,-1.0,95.236,-1.0,95.142,-1.0,95.183,95.235,95.175,95.213,95.24,95.225,95.18,95.198,95.04,95.006,-1.0,95.21,95.21,95.275,95.3,95.373,95.445,95.564,95.541,-1.0,-1.0,95.57,-1.0,-1.0,-1.0,95.61,95.562,95.58,95.59,95.635,95.67,95.64,95.639,95.645,-1.0,95.645,95.659,95.686,95.767,95.784,95.745,95.734,95.754,95.788,95.712,95.774,95.833,95.91,95.884,95.889,95.83,95.81,95.775,95.802,95.864,95.945,95.855,95.82,95.85,95.909,95.915,95.927,95.983,95.922,95.93,95.935,95.908,95.896,95.975,95.919,95.934,95.98,95.883,95.849,95.861,95.87,95.864,95.846,95.911,95.905,95.923,95.939,95.942,95.906,95.957,96.019
2019-05-01,95.905,-1.0,-1.0,95.818,95.82,95.815,95.826,-1.0,95.73,95.715,95.441,-1.0,95.195,95.33,95.552,95.689,95.745,95.787,95.76,95.704,95.626,95.706,-1.0,95.465,95.327,95.379,95.24,95.25,95.17,95.125,95.02,95.05,94.881,94.89,94.766,94.87,-1.0,95.188,95.238,95.169,-1.0,95.265,95.191,95.09,95.115,95.123,95.067,95.176,95.177,95.195,-1.0,95.319,95.263,95.323,95.293,95.263,95.296,95.127,95.0,95.012,94.893,94.703,94.697,94.71,94.735,94.823,94.799,94.893,-1.0,94.97,94.799,94.67,94.756,94.76,94.838,94.862,94.763,94.798,94.695,-1.0,-1.0,94.54,-1.0,94.513,94.474,94.352,-1.0,94.328,94.348,94.211,94.178,94.127,94.078,94.061,94.097,94.176,94.178,94.136,94.058,94.028,94.157,94.126,94.14,94.109,94.044,-1.0,93.901,93.94,93.991,-1.0,94.005,93.92,-1.0,-1.0,93.931,94.04,93.993,93.95,94.008,94.011,93.979,93.98,93.93,93.97,-1.0,93.98,93.945,93.945,93.975,94.008,94.01,94.24,94.237,94.22,94.218,94.169,94.164,94.15,94.044,94.037,94.068,94.058,94.128,94.028,94.07,94.047,94.065,94.055,94.037,94.062,94.03,93.996,93.94,94.001,94.015,94.031,93.961,93.915,93.91,93.815,93.771,93.694,93.762,93.677,93.58,93.57,93.6,-1.0,93.553,93.485,93.44,93.508,93.563,93.583,93.6,93.61,-1.0,93.67,93.645,93.623,-1.0,-1.0,93.473,93.444,93.442,93.489,93.466,-1.0,93.39,93.382,93.398,93.33,93.345,93.37,93.35,93.324,93.31,93.272,93.211,93.186,93.203,93.167,93.132,93.114,93.146,93.281,93.362,93.354,93.38,-1.0,93.541,93.455,93.401,93.35,93.47,-1.0,93.37,93.34,93.447,93.34,-1.0,93.452,93.435,93.345,-1.0,-1.0,-1.0,-1.0,93.41,93.465,93.427,93.378,93.239,-1.0,-1.0,-1.0,93.357,93.288,-1.0,93.33,93.291,93.21,93.292,93.28,93.325,-1.0,93.389,93.362,93.496,93.504,93.532,-1.0,93.577,93.6,93.51,93.4,93.475,93.472,93.463,-1.0,-1.0,93.45,93.55,93.55,-1.0,-1.0,93.53,93.5,-1.0,93.45,93.48,93.44,93.365,93.425,93.439,93.64,-1.0,93.74,93.762,93.66,93.6,93.54,93.592,-1.0,93.62,93.59,93.695,93.752,93.837,93.763,93.72,93.721,93.775,93.83,93.852,93.84,93.848,93.723,93.784,93.636,93.537,93.516,93.551,93.445,93.405,93.414,93.417,93.4,93.385,-1.0,93.155,93.2,-1.0,93.15,93.152,93.073,93.105,-1.0,-1.0,93.115,93.137,93.225,93.19,93.33,93.44,93.48,93.497,93.55,93.46,93.457,93.551,93.537,-1.0,93.293,-1.0,-1.0,93.332,-1.0,93.314,-1.0,93.31,93.29,93.28,93.247,93.252,93.303,93.265,93.314,93.31,93.3,-1.0,93.209,93.183,93.1,93.032,-1.0,92.976,92.983,92.996,92.972,92.948,92.913,92.871,92.832,92.812,92.75,92.803,92.699,92.706,92.68,92.623,92.696,92.741,92.75,92.738,92.595,92.625,92.52,92.546,92.541,92.582,92.578,92.556,92.59,92.538,92.427,92.378,92.297,92.244,92.076
2019-05-02,91.12,-1.0,91.118,91.065,91.539,91.705,91.78,91.747,91.842,92.005,91.969,-1.0,91.645,91.627,91.93,91.87,91.76,-1.0,91.948,91.918,91.915,91.918,91.792,-1.0,91.606,91.663,91.7,91.438,91.58,91.59,91.63,91.79,91.692,91.647,91.65,91.672,91.64,91.53,91.517,91.395,91.3,91.318,91.26,-1.0,91.493,91.449,-1.0,-1.0,91.373,91.31,91.297,91.59,91.58,91.645,91.646,91.61,91.64,91.524,91.48,91.412,91.347,91.38,91.41,91.45,-1.0,-1.0,91.27,91.125,-1.0,-1.0,-1.0,90.935,-1.0,-1.0,90.83,90.825,90.805,90.737,90.64,90.696,-1.0,-1.0,90.705,90.74,90.635,90.802,90.723,90.665,90.578,-1.0,90.509,90.47,90.471,90.475,90.54,90.514,90.515,90.49,90.41,90.424,90.484,90.45,90.533,90.39,90.388,90.402,90.335,90.26,90.175,90.088,89.947,89.86,89.96,89.89,-1.0,-1.0,89.92,89.983,89.853,89.79,89.903,89.94,90.007,89.948,-1.0,89.989,90.0,-1.0,-1.0,89.88,89.82,-1.0,89.77,-1.0,89.689,-1.0,-1.0,-1.0,-1.0,89.88,89.85,-1.0,89.57,89.63,89.51,89.46,89.465,-1.0,89.375,89.333,-1.0,-1.0,-1.0,89.64,89.61,89.82,89.875,89.8,-1.0,89.7,-1.0,89.793,89.802,89.9,89.765,89.611,-1.0,89.64,89.6,89.57,89.5,-1.0,89.541,89.613,89.607,89.527,89.777,89.755,89.68,89.73,89.84,89.887,90.007,89.89,89.865,89.83,89.784,89.82,89.843,89.826,89.8,89.775,-1.0,-1.0,89.802,89.806,89.8,-1.0,89.77,89.849,89.778,89.669,89.57,89.557,89.634,89.66,89.664,89.6,-1.0,89.656,89.723,-1.0,-1.0,-1.0,89.43,89.47,-1.0,89.41,89.475,89.462,89.565,89.537,89.585,-1.0,89.583,-1.0,89.76,89.76,89.757,89.81,89.875,-1.0,89.95,90.004,89.97,89.987,-1.0,89.924,-1.0,-1.0,89.935,89.93,89.881,89.87,89.85,-1.0,89.83,89.83,89.839,89.85,89.8,89.8,89.726,89.749,89.825,-1.0,89.845,89.8,89.75,-1.0,89.75,89.745,-1.0,89.73,89.691,-1.0,89.74,-1.0,89.724,-1.0,-1.0,89.62,89.58,89.56,89.55,89.61,89.62,89.55,89.596,89.67,89.662,89.561,-1.0,-1.0,89.75,89.61,-1.0,89.75,89.75,-1.0,89.67,89.65,89.752,89.845,-1.0,89.93,89.935,89.725,89.55,89.569,89.66,-1.0,89.66,89.612,89.7,89.63,89.59,-1.0,89.781,89.695,89.75,89.702,89.723,89.795,89.831,89.77,-1.0,89.665,89.651,-1.0,89.575,89.763,89.8,89.795,89.694,89.737,-1.0,89.782,89.735,89.72,89.763,-1.0,89.768,-1.0,89.758,89.792,89.752,-1.0,89.677,89.623,89.638,89.67,89.616,89.63,89.577,89.552,-1.0,89.717,-1.0,89.79,89.74,89.701,-1.0,-1.0,89.799,-1.0,89.806,-1.0,89.742,89.798,89.801,-1.0,-1.0,89.623,89.627,89.579,89.566,89.665,89.7,89.739,89.625,89.575,89.66,89.745,89.763,89.733,89.669,89.716,89.792,89.764,89.736,89.682,89.64,89.572,89.583,89.532,89.499,89.541,89.451,89.264
2019-05-03,-1.0,92.145,92.174,92.009,91.977,91.98,91.636,91.431,91.302,91.128,-1.0,91.14,91.199,91.211,91.085,91.235,90.58,90.118,90.283,90.574,90.692,90.82,90.942,90.866,-1.0,90.938,91.086,-1.0,90.924,90.98,91.18,90.999,91.138,91.44,91.575,91.729,91.872,91.849,-1.0,91.686,91.755,91.84,91.867,91.858,91.824,91.866,92.08,92.105,92.105,92.38,92.203,92.292,92.39,92.387,92.42,92.576,92.618,92.768,93.006,93.025,92.935,92.854,92.873,92.88,92.96,93.017,92.907,92.92,92.999,93.005,93.032,93.083,93.008,92.994,93.04,93.009,93.019,93.039,93.05,93.014,93.001,92.985,92.96,93.01,92.985,92.985,93.005,92.957,92.971,93.011,92.975,93.018,93.242,93.371,93.23,-1.0,93.356,93.326,93.24,93.465,93.501,93.4,93.194,93.174,93.13,93.0,92.97,92.972,92.667,92.683,-1.0,-1.0,92.609,92.638,92.722,92.88,-1.0,-1.0,-1.0,92.76,92.75,-1.0,92.785,-1.0,92.819,92.72,-1.0,-1.0,-1.0,92.75,92.767,92.745,92.83,92.83,92.81,92.738,92.742,92.678,-1.0,92.65,92.65,92.73,92.78,92.77,92.646,92.72,92.693,92.629,92.65,92.612,-1.0,92.703,92.76,92.719,-1.0,92.81,92.897,92.93,92.913,-1.0,92.9,92.9,92.842,-1.0,92.737,92.753,-1.0,92.8,92.76,92.744,-1.0,-1.0,92.78,-1.0,92.773,92.78,-1.0,92.782,92.75,92.76,92.795,-1.0,92.876,92.794,92.75,92.742,92.751,92.77,-1.0,92.825,92.92,92.95,92.993,93.021,93.03,92.958,92.85,-1.0,-1.0,93.02,93.0,93.01,92.933,-1.0,92.85,-1.0,92.637,92.743,-1.0,92.759,-1.0,92.771,-1.0,92.817,92.73,-1.0,-1.0,-1.0,92.699,92.715,92.68,92.69,92.7,92.68,92.663,92.68,92.652,92.55,92.672,92.65,-1.0,92.76,92.7,-1.0,92.66,92.735,92.68,92.611,92.62,92.625,92.68,92.61,92.549,92.498,92.3,92.28,92.15,-1.0,92.09,-1.0,92.12,-1.0,-1.0,92.17,92.02,-1.0,-1.0,92.12,92.12,92.144,92.181,92.183,92.12,92.118,92.04,91.84,91.836,91.78,91.86,91.838,-1.0,91.74,-1.0,91.685,91.7,-1.0,91.83,91.83,91.84,91.945,-1.0,-1.0,-1.0,-1.0,92.046,92.07,-1.0,92.15,92.15,-1.0,92.164,92.23,92.22,-1.0,-1.0,91.945,91.96,91.935,-1.0,-1.0,91.897,-1.0,-1.0,91.79,-1.0,-1.0,91.77,91.715,91.68,91.645,91.64,91.688,-1.0,91.733,91.713,91.775,91.787,91.775,91.71,91.722,91.735,-1.0,-1.0,92.03,92.125,92.122,92.11,-1.0,91.93,-1.0,91.82,91.826,-1.0,-1.0,91.777,-1.0,91.78,91.878,-1.0,-1.0,-1.0,-1.0,-1.0,91.76,91.754,-1.0,-1.0,91.72,91.721,91.69,91.71,91.69,91.68,91.733,91.69,91.701,91.76,-1.0,91.828,91.629,-1.0,91.65,91.64,91.559,91.65,91.623,91.58,91.525,91.569,91.576,91.68,91.624,91.54,91.389,91.48,91.439,91.392,91.363,91.211,91.229,91.32,91.35,91.394,91.263,91.375,91.477,91.528,91.522,91.516,91.159
2019-05-06,89.65,90.19,-1.0,90.56,-1.0,90.49,90.215,90.1,89.987,-1.0,90.0,-1.0,-1.0,-1.0,90.0,89.97,90.01,90.095,90.085,90.076,89.931,90.025,89.968,90.188,90.35,90.623,90.604,90.61,90.855,90.685,90.775,90.728,-1.0,90.564,90.599,90.699,90.817,-1.0,91.167,91.332,-1.0,91.27,91.385,91.39,91.596,91.542,91.54,91.385,91.452,91.503,91.413,91.425,91.368,91.173,91.186,91.215,91.179,91.265,-1.0,91.115,90.896,90.86,-1.0,-1.0,90.726,-1.0,90.725,-1.0,90.92,90.9,90.96,91.03,91.015,90.83,90.794,-1.0,90.807,90.727,90.618,90.55,90.482,-1.0,90.589,90.591,90.625,90.698,90.778,90.794,-1.0,-1.0,-1.0,90.875,-1.0,90.82,90.72,90.678,90.57,90.519,90.5,90.48,90.509,90.52,90.49,-1.0,90.72,-1.0,90.894,91.078,91.01,90.996,-1.0,91.015,91.009,90.92,-1.0,-1.0,-1.0,90.957,-1.0,91.0,91.013,-1.0,90.91,90.72,90.632,90.78,90.853,90.975,-1.0,-1.0,91.11,91.12,91.11,91.01,90.948,-1.0,91.191,91.11,-1.0,-1.0,90.96,90.85,90.82,90.94,90.794,90.78,90.725,90.589,90.567,90.525,-1.0,90.53,-1.0,-1.0,90.56,-1.0,90.55,90.59,90.65,90.68,-1.0,90.63,-1.0,90.69,90.69,-1.0,-1.0,90.815,90.79,-1.0,-1.0,90.99,90.926,-1.0,90.968,90.985,-1.0,90.999,90.888,90.885,90.819,90.69,90.62,90.575,90.57,90.605,90.625,-1.0,90.55,90.638,-1.0,-1.0,-1.0,90.71,90.71,90.697,-1.0,90.695,-1.0,-1.0,90.62,90.621,90.631,90.743,90.699,90.743,90.731,90.757,90.805,90.758,90.67,90.675,90.665,90.69,90.695,90.75,90.782,90.8,90.775,90.596,90.629,-1.0,-1.0,90.685,90.647,-1.0,90.815,-1.0,90.85,90.805,90.858,-1.0,90.845,90.86,-1.0,-1.0,90.89,90.915,90.905,90.897,90.9,-1.0,90.88,-1.0,-1.0,90.912,-1.0,90.907,90.89,90.896,-1.0,90.91,-1.0,-1.0,-1.0,-1.0,91.25,91.238,91.24,-1.0,91.336,-1.0,-1.0,91.36,-1.0,91.395,91.33,-1.0,91.244,91.251,91.21,91.159,91.17,91.21,-1.0,91.192,91.234,91.225,91.253,91.3,91.295,91.175,91.303,91.25,91.22,91.2,91.228,91.14,-1.0,-1.0,-1.0,91.153,91.114,-1.0,91.138,91.133,91.2,91.23,-1.0,91.218,91.249,91.3,91.28,91.202,91.197,91.193,91.192,91.205,-1.0,-1.0,91.34,-1.0,91.381,91.41,91.403,91.421,91.43,91.436,91.485,91.55,-1.0,91.63,91.608,91.611,91.6,-1.0,91.627,91.656,91.647,91.595,-1.0,91.67,-1.0,91.773,91.775,91.786,91.803,91.768,91.762,91.675,91.64,91.618,91.624,91.588,91.606,91.49,91.527,91.58,91.618,91.606,91.625,91.686,91.655,91.667,-1.0,91.821,91.81,91.785,91.808,91.804,91.692,91.635,91.595,91.501,91.506,91.569,91.482,91.474,91.531,91.422,91.41,91.3,91.246,91.249,91.252,91.237,91.164,91.16,91.191,91.221,91.365,91.382,91.503,91.496,91.341,91.292,91.323,91.347,91.359,91.376
2019-05-07,89.889,89.963,89.904,89.895,89.926,89.88,89.921,90.28,90.637,90.705,90.29,90.492,90.628,90.597,90.638,-1.0,90.507,90.29,-1.0,-1.0,89.99,89.83,89.905,-1.0,90.443,90.52,90.54,-1.0,-1.0,90.61,90.739,90.523,90.55,90.675,90.764,90.772,90.674,90.81,90.799,90.84,90.758,90.827,-1.0,91.049,91.103,91.105,90.98,90.94,-1.0,91.06,91.118,91.228,91.24,91.228,-1.0,91.2,91.23,91.287,91.25,91.377,91.28,91.183,91.11,-1.0,90.75,90.57,-1.0,90.575,90.657,90.676,90.765,90.915,90.988,90.948,90.91,90.912,90.948,90.795,90.755,90.77,90.625,90.555,90.59,90.67,90.593,90.595,90.585,90.6,90.68,90.56,90.785,90.647,90.563,90.489,90.463,90.508,90.495,90.498,90.473,90.587,-1.0,90.68,90.732,90.567,90.71,-1.0,90.72,90.75,-1.0,90.719,90.63,-1.0,-1.0,90.65,90.665,90.65,90.665,-1.0,90.83,90.94,-1.0,91.057,91.14,91.04,-1.0,-1.0,90.79,90.637,90.659,90.71,90.955,90.8,-1.0,-1.0,90.838,-1.0,90.919,-1.0,-1.0,90.885,-1.0,-1.0,90.7,90.74,90.744,90.728,-1.0,90.59,90.51,90.537,90.533,-1.0,90.491,90.495,90.625,90.63,90.702,-1.0,-1.0,-1.0,90.8,-1.0,-1.0,-1.0,90.76,90.71,90.804,-1.0,-1.0,-1.0,-1.0,-1.0,90.75,-1.0,-1.0,-1.0,90.71,-1.0,-1.0,-1.0,-1.0,-1.0,90.95,90.89,-1.0,90.907,90.904,90.92,-1.0,90.927,90.885,-1.0,90.898,90.931,90.884,90.918,-1.0,-1.0,-1.0,90.92,90.88,90.96,-1.0,90.93,-1.0,90.777,-1.0,90.61,90.66,90.738,90.719,90.707,90.712,90.67,90.642,90.545,90.579,90.564,90.465,90.45,-1.0,90.413,90.455,90.495,-1.0,-1.0,-1.0,90.561,-1.0,-1.0,90.365,-1.0,90.395,-1.0,90.413,90.425,-1.0,90.39,90.44,-1.0,90.298,90.32,90.28,90.39,90.467,90.45,90.46,90.277,90.365,-1.0,90.302,90.226,90.245,90.28,-1.0,-1.0,90.295,-1.0,90.391,90.49,90.52,-1.0,90.58,90.71,90.59,90.495,-1.0,-1.0,90.55,-1.0,90.575,-1.0,-1.0,-1.0,90.6,-1.0,90.75,90.787,-1.0,90.785,90.765,-1.0,-1.0,-1.0,90.769,-1.0,90.73,90.68,90.672,-1.0,-1.0,90.76,-1.0,90.717,90.605,90.685,-1.0,90.61,90.583,90.57,90.62,90.56,90.433,90.48,90.485,90.589,90.609,90.702,90.69,-1.0,-1.0,90.77,90.71,90.65,90.6,-1.0,90.64,90.643,-1.0,-1.0,90.646,90.672,90.699,90.745,90.805,91.004,90.994,91.032,91.04,91.07,91.064,-1.0,91.023,90.906,90.93,90.94,90.915,90.962,90.97,-1.0,-1.0,91.21,91.28,91.3,91.272,91.32,91.218,91.26,91.245,91.154,91.19,91.171,91.157,91.15,91.03,91.085,91.052,91.043,91.045,91.045,91.063,91.065,91.085,91.076,91.04,91.017,91.057,91.058,-1.0,91.083,91.087,-1.0,91.274,91.331,91.405,91.49,91.455,91.44,91.507,91.46,91.42,-1.0,91.578,91.632,91.746,91.833,91.76,91.706,91.71,91.748
2019-05-08,91.618,-1.0,92.235,92.03,-1.0,92.445,92.61,92.877,92.767,92.68,-1.0,92.815,92.839,92.693,-1.0,92.99,93.18,93.3,93.49,93.435,93.188,93.222,93.54,93.625,-1.0,93.29,93.15,93.11,93.08,93.24,93.404,93.44,93.399,93.2,-1.0,-1.0,93.56,-1.0,93.603,93.633,93.556,93.43,-1.0,93.445,-1.0,-1.0,93.425,-1.0,-1.0,93.33,93.452,93.472,93.58,93.645,93.642,93.663,93.672,93.62,-1.0,93.421,93.772,93.706,93.456,93.418,-1.0,93.422,93.435,93.442,-1.0,93.43,93.57,-1.0,93.629,93.605,93.636,-1.0,93.727,-1.0,93.846,93.805,-1.0,-1.0,93.778,-1.0,93.585,93.6,-1.0,93.565,93.64,93.873,94.026,94.091,94.121,94.278,94.315,94.399,94.505,94.654,94.625,94.431,94.396,94.306,94.202,94.316,94.504,94.51,94.492,94.441,94.432,-1.0,-1.0,94.299,94.219,94.18,94.113,-1.0,-1.0,-1.0,93.92,-1.0,94.01,94.01,94.01,93.856,93.932,93.972,93.99,93.857,93.839,-1.0,-1.0,93.78,-1.0,93.78,93.803,93.83,-1.0,93.92,-1.0,-1.0,93.938,-1.0,93.915,-1.0,93.97,-1.0,94.05,-1.0,-1.0,94.02,94.004,-1.0,93.87,-1.0,-1.0,-1.0,-1.0,93.9,-1.0,-1.0,93.747,93.719,93.757,93.755,93.722,93.74,-1.0,93.82,93.825,93.737,93.693,93.735,-1.0,-1.0,-1.0,93.815,93.803,93.873,93.875,93.927,-1.0,-1.0,-1.0,93.692,-1.0,-1.0,93.71,-1.0,93.635,93.58,93.57,93.561,-1.0,-1.0,-1.0,93.57,93.62,93.67,93.705,93.77,-1.0,93.81,93.773,93.71,-1.0,93.681,93.7,93.755,93.768,93.787,93.753,-1.0,-1.0,-1.0,93.8,93.775,93.72,93.787,93.78,93.77,93.794,93.795,-1.0,93.765,93.755,93.739,93.673,93.685,93.657,93.645,-1.0,93.72,-1.0,-1.0,93.82,93.736,93.802,-1.0,-1.0,93.713,-1.0,93.664,93.725,93.79,93.808,93.805,93.727,93.804,-1.0,-1.0,-1.0,-1.0,93.78,93.82,-1.0,93.805,93.846,93.71,93.733,93.79,-1.0,-1.0,93.826,93.809,93.736,93.734,93.74,-1.0,-1.0,-1.0,93.81,-1.0,93.705,93.736,93.74,-1.0,93.692,93.718,93.77,93.82,93.76,93.76,-1.0,93.655,-1.0,93.67,93.7,93.74,93.699,93.664,93.681,93.695,93.767,93.78,93.873,93.941,93.994,94.03,94.039,94.05,94.175,94.14,94.15,-1.0,94.245,94.24,94.21,94.158,-1.0,-1.0,94.29,94.27,94.211,94.21,94.265,94.291,94.16,94.178,-1.0,94.189,-1.0,-1.0,94.17,94.218,94.266,94.271,-1.0,94.154,94.25,94.213,94.26,94.2,94.255,94.228,94.15,94.1,94.189,94.22,94.14,-1.0,-1.0,94.21,94.21,94.32,94.282,94.15,94.128,-1.0,94.26,-1.0,-1.0,-1.0,-1.0,94.31,94.305,94.333,94.382,94.413,94.455,94.375,94.377,94.393,94.365,94.43,94.41,-1.0,94.47,94.46,94.346,94.372,94.394,94.354,94.286,94.305,94.29,94.29,94.23,94.224,94.305,94.278,94.189,94.145,94.233,94.227,94.176,94.093,94.155,94.129,94.138,94.107
2019-05-09,92.323,92.69,92.635,-1.0,-1.0,92.854,-1.0,92.755,-1.0,93.25,93.23,-1.0,93.21,-1.0,-1.0,92.66,92.584,-1.0,-1.0,92.509,92.32,92.263,-1.0,92.35,-1.0,92.335,92.478,92.48,-1.0,92.673,92.785,92.74,92.68,92.651,92.81,-1.0,92.805,92.96,92.92,93.0,92.88,-1.0,-1.0,92.85,92.887,92.86,-1.0,92.671,-1.0,92.61,92.47,92.663,92.612,92.76,92.753,92.762,92.75,-1.0,92.895,93.015,93.068,93.052,93.1,93.086,-1.0,92.955,92.98,92.933,92.75,-1.0,92.788,92.81,93.1,93.173,93.245,93.3,93.295,93.427,-1.0,93.42,93.382,93.458,-1.0,93.425,93.44,93.391,93.4,93.37,93.423,93.377,93.459,93.49,93.49,93.498,93.595,93.54,93.58,93.483,93.6,-1.0,93.755,93.82,93.707,-1.0,93.876,93.79,-1.0,-1.0,-1.0,-1.0,-1.0,93.457,-1.0,-1.0,93.283,93.37,93.277,93.159,93.155,93.155,93.3,93.25,93.385,-1.0,-1.0,-1.0,93.523,93.5,-1.0,93.65,93.77,93.684,93.568,93.655,93.751,93.761,-1.0,93.72,-1.0,-1.0,-1.0,-1.0,93.722,93.703,93.797,-1.0,-1.0,-1.0,93.725,-1.0,93.88,-1.0,-1.0,93.815,93.825,93.84,93.81,93.895,93.965,94.02,93.969,93.95,-1.0,-1.0,-1.0,93.915,-1.0,-1.0,94.14,-1.0,94.04,94.025,94.031,94.06,94.04,94.207,-1.0,94.168,94.32,94.29,94.35,-1.0,94.52,94.537,94.541,-1.0,-1.0,-1.0,94.72,94.783,-1.0,-1.0,94.75,94.603,94.63,94.67,94.702,94.635,94.567,94.61,94.59,94.554,94.603,94.78,94.76,-1.0,94.8,-1.0,94.741,94.85,94.997,-1.0,95.051,95.06,95.019,-1.0,-1.0,94.81,-1.0,-1.0,94.78,94.63,-1.0,94.78,94.784,94.71,-1.0,94.579,-1.0,94.523,94.485,-1.0,94.555,94.59,94.55,-1.0,-1.0,94.56,94.655,94.625,94.667,-1.0,-1.0,-1.0,-1.0,-1.0,94.71,94.593,94.6,-1.0,94.665,94.625,-1.0,-1.0,-1.0,-1.0,94.6,94.565,94.558,94.71,94.737,94.699,-1.0,94.657,94.633,94.665,94.659,94.7,94.716,94.711,94.81,-1.0,94.675,94.568,94.59,-1.0,94.75,94.73,94.653,-1.0,94.775,94.79,94.744,94.786,94.81,94.79,94.77,94.774,-1.0,94.715,94.71,94.785,-1.0,-1.0,94.715,94.675,94.64,94.476,94.463,-1.0,94.46,94.47,94.52,94.543,94.451,94.412,-1.0,94.355,-1.0,94.42,94.44,94.482,94.471,94.452,94.39,94.36,94.34,94.34,94.282,94.277,94.288,94.35,94.351,94.37,94.36,94.362,94.313,94.24,-1.0,94.148,94.162,94.105,-1.0,94.127,94.18,94.172,94.14,94.108,-1.0,93.91,93.875,93.94,93.94,94.03,93.993,-1.0,94.017,94.026,93.99,94.023,94.082,94.105,94.101,94.132,94.172,94.145,94.155,94.132,94.16,94.23,-1.0,94.31,-1.0,94.339,94.39,94.35,94.314,94.255,-1.0,94.355,94.35,94.281,94.253,-1.0,94.34,94.308,94.331,94.313,94.33,94.299,94.304,94.337,94.333,94.316,94.32,94.346,94.36,94.321,94.333,94.281
2019-05-10,94.205,-1.0,93.877,93.98,94.091,94.015,93.93,94.115,94.116,94.2,94.202,94.145,94.153,93.92,93.94,93.835,93.92,-1.0,94.08,93.84,93.72,93.6,93.62,93.796,93.683,93.745,-1.0,93.797,93.743,93.668,93.643,93.545,93.643,-1.0,93.564,93.44,93.375,93.385,-1.0,93.46,-1.0,93.453,93.48,93.39,93.35,93.201,92.972,92.942,92.99,-1.0,92.94,92.905,92.905,92.861,92.825,93.038,-1.0,-1.0,93.08,93.066,93.135,93.045,93.069,93.02,-1.0,93.02,-1.0,92.885,92.844,92.72,92.825,92.65,92.764,92.74,92.8,92.858,93.049,93.059,93.09,92.968,93.053,93.106,93.16,-1.0,93.152,93.15,93.146,93.172,93.28,93.212,93.22,-1.0,93.142,-1.0,93.095,-1.0,93.23,93.29,-1.0,93.082,93.066,93.088,93.073,93.097,93.21,93.17,-1.0,93.338,93.33,93.367,93.492,-1.0,93.632,93.585,93.582,93.589,93.527,93.628,-1.0,93.58,93.56,93.43,-1.0,93.48,-1.0,93.45,93.44,-1.0,93.66,-1.0,93.597,93.625,93.412,93.288,93.4,93.48,93.373,-1.0,93.4,93.34,93.29,-1.0,-1.0,-1.0,93.453,93.669,93.563,93.575,93.618,-1.0,93.743,93.754,93.695,93.725,93.649,93.65,93.585,93.53,-1.0,-1.0,93.54,93.57,93.71,-1.0,93.796,93.765,-1.0,93.807,93.86,93.86,93.8,-1.0,93.86,-1.0,93.84,-1.0,93.955,93.98,-1.0,-1.0,-1.0,94.115,94.175,94.282,-1.0,-1.0,-1.0,-1.0,-1.0,-1.0,-1.0,94.165,94.06,-1.0,-1.0,94.18,-1.0,94.196,-1.0,94.065,-1.0,-1.0,-1.0,-1.0,-1.0,94.34,94.26,94.265,-1.0,-1.0,94.28,94.39,-1.0,-1.0,-1.0,94.405,94.35,-1.0,-1.0,-1.0,-1.0,94.38,-1.0,-1.0,-1.0,-1.0,94.219,94.236,94.32,-1.0,-1.0,-1.0,94.52,94.39,-1.0,94.47,-1.0,-1.0,94.51,94.496,-1.0,94.52,94.553,94.575,-1.0,-1.0,94.545,-1.0,94.475,-1.0,94.561,-1.0,94.525,94.47,-1.0,-1.0,94.58,-1.0,94.625,-1.0,94.592,94.618,94.58,-1.0,94.62,-1.0,94.507,-1.0,-1.0,94.575,94.56,94.554,94.625,94.625,-1.0,-1.0,94.62,94.7,94.706,94.675,-1.0,94.722,94.675,94.67,94.535,94.474,94.447,94.445,94.35,94.359,94.294,94.251,94.159,94.088,94.095,94.056,-1.0,94.218,94.19,-1.0,94.196,94.185,94.215,-1.0,-1.0,94.269,94.25,94.295,94.388,-1.0,94.425,94.425,94.382,-1.0,94.375,94.365,94.374,94.392,-1.0,94.4,94.45,94.437,94.539,-1.0,94.5,94.55,-1.0,94.567,94.577,94.647,94.59,94.654,94.77,94.675,94.78,94.795,94.8,94.72,94.699,94.747,94.765,-1.0,-1.0,-1.0,94.78,-1.0,94.885,-1.0,95.013,-1.0,95.11,95.038,95.118,-1.0,95.101,95.098,95.178,-1.0,-1.0,95.182,95.13,95.061,94.996,94.954,-1.0,94.802,-1.0,-1.0,94.734,94.71,94.687,94.66,94.664,94.659,94.632,94.67,94.76,94.728,94.695,94.646,94.7,94.719,94.715,94.79,94.803,94.848,94.78,94.879,94.878,94.99
2019-05-13,-1.0,-1.0,-1.0,-1.0,94.35,94.45,94.577,94.52,94.574,-1.0,94.54,-1.0,94.68,-1.0,-1.0,-1.0,-1.0,-1.0,94.88,94.729,-1.0,94.546,94.452,94.454,-1.0,-1.0,-1.0,94.295,94.298,94.34,-1.0,-1.0,94.14,94.044,94.161,-1.0,93.962,93.987,93.984,-1.0,93.69,93.647,93.685,93.734,93.72,93.79,93.91,94.077,94.224,94.166,94.02,93.916,93.887,-1.0,94.09,94.17,-1.0,94.114,94.23,94.245,94.22,94.35,-1.0,94.307,94.335,94.47,94.582,94.555,94.559,94.664,94.891,94.981,95.178,95.263,95.221,95.17,95.233,95.118,95.051,94.815,-1.0,-1.0,-1.0,94.8,-1.0,94.75,-1.0,-1.0,-1.0,94.81,94.96,94.94,94.69,94.61,-1.0,94.49,-1.0,94.638,94.604,94.575,94.49,-1.0,94.515,-1.0,94.351,-1.0,94.235,94.004,-1.0,94.06,94.18,94.158,94.093,-1.0,94.212,94.09,94.01,93.895,93.885,93.96,-1.0,93.99,93.995,-1.0,94.017,-1.0,-1.0,93.9,-1.0,-1.0,-1.0,93.68,93.8,93.89,93.9,93.907,-1.0,93.86,93.79,93.835,93.863,93.675,-1.0,-1.0,-1.0,93.59,93.59,93.685,-1.0,-1.0,-1.0,-1.0,-1.0,93.808,93.786,93.794,93.815,93.792,93.739,93.657,93.75,93.776,93.65,93.764,-1.0,-1.0,93.63,-1.0,-1.0,93.815,93.805,-1.0,93.83,-1.0,93.795,93.85,-1.0,-1.0,93.82,93.816,93.71,93.609,93.69,93.745,93.695,93.807,93.793,93.85,94.0,94.015,93.998,93.98,93.84,93.802,93.897,93.9,93.9,-1.0,-1.0,93.97,93.975,-1.0,94.085,-1.0,94.035,-1.0,93.775,93.868,-1.0,93.9,93.873,93.75,93.705,93.78,93.817,93.796,93.75,93.755,93.63,93.608,93.58,-1.0,93.699,93.767,-1.0,93.75,93.68,93.783,-1.0,-1.0,93.72,-1.0,-1.0,-1.0,93.769,93.86,93.79,-1.0,93.715,-1.0,93.73,93.91,-1.0,93.772,-1.0,-1.0,-1.0,-1.0,93.79,93.94,93.85,93.795,93.786,93.728,93.703,93.62,93.62,93.593,93.642,93.677,-1.0,-1.0,-1.0,-1.0,93.61,-1.0,93.645,93.585,93.61,93.659,-1.0,93.7,93.7,93.765,93.766,93.825,93.838,-1.0,-1.0,93.86,93.86,-1.0,93.66,93.685,93.605,93.64,93.535,93.608,93.671,93.62,93.75,-1.0,93.635,-1.0,93.565,93.814,93.87,-1.0,93.87,93.955,-1.0,-1.0,-1.0,-1.0,93.734,93.68,93.63,-1.0,-1.0,93.76,93.625,-1.0,-1.0,-1.0,-1.0,-1.0,93.68,-1.0,-1.0,-1.0,-1.0,-1.0,-1.0,-1.0,-1.0,-1.0,-1.0,93.9,-1.0,-1.0,93.88,93.87,-1.0,93.71,-1.0,93.647,93.69,-1.0,93.77,-1.0,93.647,93.65,93.62,93.529,93.495,93.47,-1.0,-1.0,93.41,93.39,93.392,-1.0,-1.0,-1.0,93.37,93.358,-1.0,93.24,-1.0,93.292,93.295,93.34,93.33,-1.0,-1.0,93.415,93.337,93.354,93.33,93.35,93.42,93.39,-1.0,-1.0,93.353,93.425,93.368,93.433,93.461,-1.0,-1.0,93.44,93.427,93.413,93.421,93.503,93.479,93.546,93.581,93.527
2019-05-14,94.1,94.1,-1.0,-1.0,94.551,94.46,94.55,-1.0,-1.0,-1.0,94.375,94.405,-1.0,94.495,94.44,-1.0,94.537,94.508,94.609,94.42,-1.0,94.17,94.09,-1.0,94.13,94.125,-1.0,94.346,-1.0,94.355,94.503,94.535,94.716,-1.0,-1.0,94.56,-1.0,94.71,94.696,94.71,-1.0,94.615,94.683,94.54,94.447,94.6,94.62,94.65,94.652,94.806,94.871,94.885,94.911,94.89,94.866,94.838,94.865,94.92,94.955,95.061,-1.0,94.982,95.014,95.141,-1.0,95.09,95.053,95.05,-1.0,-1.0,-1.0,95.085,95.105,95.065,-1.0,-1.0,95.078,95.04,-1.0,95.019,94.97,-1.0,94.889,-1.0,-1.0,94.71,-1.0,-1.0,94.57,94.6,94.64,94.655,-1.0,-1.0,94.533,94.656,94.795,-1.0,-1.0,94.684,94.72,94.66,94.766,-1.0,94.738,-1.0,94.785,94.792,94.914,-1.0,95.01,94.972,94.79,94.777,94.937,94.93,94.88,-1.0,94.81,-1.0,94.795,94.862,-1.0,-1.0,94.86,94.99,95.02,94.95,94.96,94.85,94.91,94.918,94.97,94.953,-1.0,94.812,94.905,94.91,94.98,-1.0,94.92,95.01,95.05,95.065,-1.0,95.18,95.261,-1.0,95.125,-1.0,95.1,-1.0,-1.0,-1.0,95.245,95.231,-1.0,95.2,95.15,-1.0,95.115,-1.0,-1.0,-1.0,95.12,-1.0,95.05,-1.0,-1.0,-1.0,94.91,94.918,94.9,94.885,94.82,-1.0,94.82,94.842,-1.0,94.79,94.843,-1.0,94.865,-1.0,94.95,-1.0,94.94,-1.0,-1.0,95.03,95.03,-1.0,-1.0,95.075,-1.0,-1.0,-1.0,95.01,-1.0,-1.0,-1.0,95.074,-1.0,-1.0,95.178,95.135,95.075,95.133,95.06,95.051,95.129,-1.0,-1.0,-1.0,-1.0,95.01,-1.0,-1.0,-1.0,-1.0,95.103,95.15,95.188,95.248,95.22,95.27,95.227,-1.0,-1.0,95.183,95.155,-1.0,95.12,-1.0,95.18,-1.0,-1.0,-1.0,95.17,-1.0,-1.0,95.166,95.17,95.13,-1.0,95.123,95.16,95.142,95.117,95.04,-1.0,-1.0,94.912,-1.0,-1.0,-1.0,-1.0,-1.0,94.877,-1.0,94.945,94.93,94.89,-1.0,-1.0,-1.0,94.993,94.97,94.98,-1.0,94.933,-1.0,94.93,-1.0,-1.0,-1.0,-1.0,94.74,94.72,94.76,94.779,94.785,94.82,-1.0,-1.0,94.815,-1.0,94.84,94.823,94.802,94.77,94.75,94.736,94.76,94.77,94.8,94.77,94.69,-1.0,-1.0,94.66,94.622,94.61,94.63,94.63,-1.0,-1.0,94.583,94.59,94.61,-1.0,94.595,-1.0,-1.0,94.6,-1.0,94.48,-1.0,94.42,94.389,94.324,94.282,94.28,94.316,94.273,94.294,94.327,94.365,94.344,94.355,94.343,94.395,94.35,94.45,94.483,94.43,94.42,-1.0,94.43,94.502,94.54,94.451,-1.0,-1.0,94.35,94.38,-1.0,94.296,94.345,94.371,94.382,94.34,-1.0,-1.0,-1.0,-1.0,94.357,94.42,94.429,-1.0,-1.0,94.335,-1.0,94.281,94.204,94.245,-1.0,94.135,94.164,-1.0,94.178,94.148,94.168,94.255,94.256,94.161,94.17,94.2,-1.0,94.28,94.299,94.259,94.244,94.22,94.296,94.379,94.267,94.274,94.278,94.292
2019-05-15,-1.0,-1.0,-1.0,93.185,93.63,-1.0,-1.0,93.845,93.7,-1.0,93.756,93.704,-1.0,-1.0,93.685,-1.0,-1.0,-1.0,-1.0,-1.0,93.82,93.71,-1.0,93.7,93.84,-1.0,-1.0,93.77,93.495,93.575,93.625,-1.0,93.455,93.41,93.487,93.33,93.298,93.334,93.445,93.3,93.487,93.435,93.39,93.478,93.632,93.78,93.63,93.61,93.625,-1.0,-1.0,93.59,93.61,93.525,-1.0,93.6,93.715,-1.0,-1.0,93.66,93.581,93.665,93.755,-1.0,-1.0,93.69,-1.0,93.64,93.7,93.751,93.84,93.793,93.735,93.83,93.89,94.03,-1.0,94.038,93.92,-1.0,-1.0,94.085,-1.0,94.136,94.045,-1.0,93.975,-1.0,-1.0,93.896,93.835,93.805,-1.0,93.69,-1.0,93.687,-1.0,93.752,93.801,93.798,93.843,-1.0,94.0,94.001,-1.0,-1.0,94.123,94.05,-1.0,94.017,94.095,94.04,94.03,94.14,-1.0,94.203,94.328,-1.0,-1.0,-1.0,-1.0,-1.0,94.17,-1.0,94.288,94.23,-1.0,94.125,94.195,-1.0,94.264,-1.0,94.395,-1.0,-1.0,94.27,-1.0,-1.0,94.246,-1.0,94.327,94.31,94.2,-1.0,-1.0,-1.0,94.308,-1.0,94.405,94.409,94.464,-1.0,94.51,-1.0,94.535,94.505,94.51,-1.0,-1.0,94.551,94.498,94.535,-1.0,94.445,94.52,-1.0,-1.0,-1.0,-1.0,94.37,-1.0,-1.0,-1.0,-1.0,94.31,-1.0,94.296,94.32,-1.0,-1.0,-1.0,-1.0,-1.0,-1.0,-1.0,94.455,94.362,-1.0,94.31,94.31,-1.0,-1.0,94.24,-1.0,94.235,-1.0,-1.0,94.143,-1.0,94.248,-1.0,-1.0,-1.0,-1.0,-1.0,94.42,94.395,94.35,-1.0,94.22,94.25,94.275,-1.0,94.33,-1.0,94.355,-1.0,-1.0,94.31,94.32,94.313,-1.0,94.26,94.26,94.235,94.195,94.235,-1.0,94.185,-1.0,94.15,-1.0,-1.0,-1.0,94.09,-1.0,94.13,94.15,-1.0,94.16,-1.0,94.247,94.26,94.255,94.34,-1.0,-1.0,94.38,94.39,-1.0,-1.0,-1.0,94.35,-1.0,-1.0,-1.0,94.21,-1.0,94.2,-1.0,-1.0,-1.0,-1.0,-1.0,-1.0,94.23,-1.0,94.19,94.19,-1.0,94.18,94.175,94.158,-1.0,-1.0,94.215,-1.0,-1.0,-1.0,-1.0,94.275,-1.0,-1.0,-1.0,-1.0,94.13,-1.0,-1.0,94.22,-1.0,-1.0,94.29,-1.0,-1.0,94.395,-1.0,-1.0,-1.0,-1.0,-1.0,-1.0,94.225,94.26,-1.0,-1.0,-1.0,-1.0,-1.0,94.135,94.167,-1.0,-1.0,-1.0,94.27,-1.0,-1.0,-1.0,94.35,-1.0,-1.0,94.39,-1.0,-1.0,-1.0,-1.0,-1.0,94.275,94.28,-1.0,-1.0,94.24,94.275,-1.0,94.134,94.15,-1.0,-1.0,-1.0,-1.0,-1.0,94.12,94.03,-1.0,94.118,-1.0,-1.0,-1.0,94.197,94.206,94.3,-1.0,94.39,-1.0,-1.0,-1.0,-1.0,94.38,-1.0,-1.0,-1.0,94.44,94.455,-1.0,-1.0,94.38,-1.0,-1.0,94.51,-1.0,-1.0,-1.0,-1.0,-1.0,-1.0,-1.0,94.605,94.565,94.535,94.56,-1.0,-1.0,94.587,94.6,94.603,94.569,94.486,94.435,94.463,94.462,94.411
2019-05-16,-1.0,-1.0,-1.0,-1.0,-1.0,95.213,95.413,-1.0,-1.0,-1.0,95.405,-1.0,-1.0,95.623,95.289,95.057,94.862,94.95,95.063,95.169,-1.0,95.153,95.25,-1.0,-1.0,95.7,-1.0,-1.0,-1.0,-1.0,95.6,95.55,95.5,95.485,-1.0,-1.0,95.432,95.575,95.585,95.57,-1.0,95.425,95.334,-1.0,-1.0,-1.0,95.405,95.32,-1.0,95.36,95.4,-1.0,-1.0,95.475,95.515,-1.0,-1.0,95.4,95.44,-1.0,95.655,95.63,-1.0,95.53,95.575,95.532,95.574,95.59,-1.0,-1.0,-1.0,-1.0,-1.0,-1.0,95.8,-1.0,-1.0,-1.0,-1.0,95.667,95.665,95.511,95.517,-1.0,95.61,95.65,-1.0,-1.0,-1.0,-1.0,95.735,95.89,95.994,96.045,-1.0,-1.0,-1.0,-1.0,-1.0,-1.0,95.832,95.88,-1.0,-1.0,-1.0,95.945,95.98,96.01,96.045,-1.0,-1.0,-1.0,-1.0,-1.0,-1.0,95.971,95.963,-1.0,96.0,-1.0,95.98,-1.0,-1.0,-1.0,-1.0,-1.0,95.916,95.75,-1.0,-1.0,-1.0,-1.0,-1.0,-1.0,95.93,95.96,95.92,95.94,95.953,95.95,-1.0,96.01,95.99,-1.0,-1.0,96.048,96.062,96.035,-1.0,96.21,-1.0,96.14,-1.0,96.12,96.11,-1.0,-1.0,96.15,-1.0,-1.0,-1.0,96.025,-1.0,96.04,-1.0,96.002,95.975,96.02,96.07,96.0,95.96,-1.0,95.92,95.915,95.9,95.92,95.895,95.935,95.89,95.88,95.89,-1.0,95.934,-1.0,95.95,-1.0,-1.0,95.981,95.962,96.0,95.96,-1.0,95.97,-1.0,-1.0,-1.0,-1.0,-1.0,-1.0,-1.0,-1.0,-1.0,-1.0,95.885,-1.0,-1.0,-1.0,-1.0,-1.0,95.93,-1.0,95.849,-1.0,95.7,95.73,95.692,95.7,-1.0,95.821,-1.0,-1.0,95.81,95.83,95.834,-1.0,95.785,95.78,-1.0,-1.0,95.805,95.762,95.749,95.79,-1.0,-1.0,95.74,-1.0,-1.0,-1.0,-1.0,95.755,95.79,-1.0,-1.0,-1.0,95.741,-1.0,-1.0,-1.0,95.71,-1.0,95.624,95.62,95.6,95.62,-1.0,95.675,95.56,-1.0,95.49,95.5,95.49,-1.0,95.455,95.46,95.453,-1.0,-1.0,95.551,95.651,95.634,-1.0,95.686,-1.0,-1.0,-1.0,-1.0,-1.0,-1.0,95.619,-1.0,95.596,95.589,95.595,95.63,95.636,-1.0,-1.0,-1.0,95.723,-1.0,95.67,-1.0,-1.0,95.808,95.78,95.785,-1.0,95.71,-1.0,-1.0,95.7,95.668,-1.0,-1.0,95.64,-1.0,95.73,-1.0,95.825,95.83,95.845,95.813,95.85,95.888,95.92,95.915,95.902,95.825,-1.0,95.803,95.81,95.77,-1.0,95.64,95.62,95.66,95.64,95.59,95.62,95.62,-1.0,-1.0,-1.0,-1.0,95.71,95.725,95.565,95.58,95.61,95.53,95.537,95.51,95.47,95.45,95.455,-1.0,95.45,-1.0,95.395,95.397,-1.0,-1.0,95.52,-1.0,95.554,95.556,95.606,-1.0,95.587,95.55,95.545,95.498,95.445,95.465,95.496,95.48,-1.0,95.31,95.302,95.23,95.21,95.07,-1.0,95.046,95.079,95.104,95.056,95.074,95.073,95.172,95.215,95.267,95.313,95.35,95.308,95.255,95.223,95.259,95.204
2019-05-17,94.305,-1.0,94.473,94.501,-1.0,94.439,94.521,94.441,94.382,94.303,94.146,94.222,94.247,94.258,94.338,94.33,-1.0,-1.0,94.298,-1.0,-1.0,94.023,-1.0,93.95,-1.0,-1.0,94.185,-1.0,94.16,94.21,94.3,94.25,94.173,-1.0,-1.0,94.055,94.051,94.05,94.024,94.093,94.04,94.06,93.93,93.91,93.766,-1.0,-1.0,93.8,93.897,93.848,-1.0,94.07,-1.0,-1.0,94.156,-1.0,94.055,94.067,94.022,94.047,93.94,93.905,93.911,93.859,93.918,-1.0,-1.0,93.541,93.545,-1.0,-1.0,93.385,-1.0,93.41,93.456,93.457,93.275,93.313,93.37,93.441,93.58,93.64,93.71,93.715,-1.0,93.93,94.013,94.057,-1.0,93.911,93.926,-1.0,93.942,93.934,93.963,94.074,94.075,94.165,94.192,-1.0,-1.0,93.91,93.95,93.997,-1.0,93.99,94.01,-1.0,94.17,94.18,94.25,94.132,-1.0,94.1,-1.0,94.005,-1.0,93.868,93.818,-1.0,93.78,93.7,93.72,93.75,93.8,-1.0,93.83,93.763,93.775,93.745,93.65,93.678,93.624,93.533,-1.0,93.57,93.58,93.595,93.57,93.548,93.537,93.605,-1.0,93.57,93.707,-1.0,-1.0,93.657,93.725,93.75,93.672,93.755,93.76,93.807,93.795,93.724,-1.0,-1.0,93.69,-1.0,93.526,93.49,93.4,93.448,-1.0,-1.0,93.295,-1.0,-1.0,93.395,93.395,93.359,-1.0,93.43,93.4,-1.0,93.32,93.313,93.314,93.219,93.17,93.138,93.066,93.06,93.035,93.095,93.078,93.079,93.128,93.073,93.015,93.1,93.12,93.17,93.09,93.115,93.109,93.079,92.99,93.03,92.985,93.0,93.005,93.01,-1.0,-1.0,92.973,92.98,-1.0,92.868,92.888,92.86,92.903,92.93,-1.0,-1.0,92.9,-1.0,92.94,93.015,-1.0,92.956,-1.0,-1.0,92.893,92.947,93.005,93.045,93.04,93.025,93.012,-1.0,93.05,-1.0,-1.0,93.01,93.074,-1.0,93.085,93.13,-1.0,-1.0,-1.0,93.175,-1.0,93.295,93.32,93.326,93.32,93.33,-1.0,93.275,93.215,93.24,-1.0,93.31,-1.0,93.345,-1.0,-1.0,93.44,-1.0,-1.0,-1.0,-1.0,93.376,93.353,-1.0,-1.0,93.48,-1.0,-1.0,-1.0,-1.0,93.293,93.3,-1.0,93.31,93.29,93.27,-1.0,93.123,-1.0,93.105,93.06,93.024,93.02,93.025,93.035,93.025,93.05,-1.0,-1.0,93.02,-1.0,93.018,92.997,92.9,-1.0,92.907,92.86,-1.0,92.935,92.99,93.043,93.03,93.03,93.07,-1.0,93.14,-1.0,93.045,-1.0,93.04,93.088,93.09,-1.0,93.115,93.105,93.132,93.123,93.134,93.188,-1.0,-1.0,93.283,93.343,-1.0,-1.0,-1.0,93.365,93.161,93.075,-1.0,93.1,-1.0,92.975,92.96,92.88,92.917,92.85,-1.0,-1.0,92.816,-1.0,92.787,92.73,92.775,92.78,-1.0,92.825,92.763,92.79,92.843,92.82,-1.0,92.786,92.777,92.805,92.847,92.86,92.79,92.722,92.698,92.754,92.823,92.884,92.908,92.955,92.947,92.911,92.82,92.91,92.997,92.977,92.964,92.979,92.941,92.975,92.936,92.949,93.043,93.094,93.09,93.086,93.06,93.233,93.159,93.052,93.042
2019-05-20,-1.0,-1.0,93.184,-1.0,93.305,93.093,-1.0,93.14,-1.0,93.0,93.17,93.23,93.29,-1.0,-1.0,-1.0,-1.0,-1.0,93.552,93.459,93.382,93.392,-1.0,93.323,93.238,-1.0,93.485,-1.0,-1.0,-1.0,93.685,93.771,93.85,93.77,-1.0,-1.0,93.7,93.77,93.769,93.922,93.87,93.98,94.05,94.113,94.072,-1.0,94.171,94.23,-1.0,94.09,94.057,94.02,94.149,94.141,94.29,94.29,94.338,-1.0,94.3,94.32,94.25,94.213,94.17,94.207,94.204,-1.0,-1.0,-1.0,94.27,-1.0,-1.0,-1.0,-1.0,94.385,94.39,94.34,94.248,94.223,94.29,-1.0,-1.0,94.235,94.38,-1.0,94.5,-1.0,-1.0,94.465,-1.0,-1.0,94.44,94.435,94.24,94.183,-1.0,-1.0,-1.0,-1.0,94.04,-1.0,93.927,-1.0,-1.0,-1.0,-1.0,94.04,-1.0,94.005,93.901,93.805,-1.0,93.675,-1.0,93.65,-1.0,93.63,93.623,93.733,-1.0,-1.0,93.9,-1.0,-1.0,93.945,93.894,-1.0,93.77,-1.0,-1.0,93.845,93.916,93.985,-1.0,-1.0,-1.0,93.87,93.83,-1.0,-1.0,-1.0,-1.0,93.978,-1.0,93.987,93.96,-1.0,-1.0,-1.0,-1.0,94.03,94.07,94.07,94.141,-1.0,-1.0,-1.0,-1.0,94.04,-1.0,-1.0,-1.0,-1.0,94.07,94.065,94.11,-1.0,94.086,94.04,94.035,-1.0,-1.0,94.015,-1.0,-1.0,-1.0,94.07,-1.0,-1.0,-1.0,-1.0,-1.0,-1.0,-1.0,93.873,93.97,93.96,94.089,-1.0,-1.0,94.028,93.935,93.95,-1.0,94.03,-1.0,-1.0,94.07,-1.0,-1.0,-1.0,-1.0,93.98,93.97,-1.0,93.93,-1.0,93.939,-1.0,-1.0,-1.0,93.81,-1.0,-1.0,93.75,-1.0,-1.0,-1.0,93.74,-1.0,-1.0,-1.0,93.765,-1.0,93.706,93.66,-1.0,93.75,-1.0,-1.0,93.74,93.69,93.725,-1.0,-1.0,-1.0,93.676,93.643,-1.0,-1.0,-1.0,-1.0,93.573,93.535,-1.0,93.57,-1.0,93.57,-1.0,-1.0,93.5,-1.0,-1.0,-1.0,93.57,93.52,93.54,-1.0,93.525,93.54,93.54,-1.0,-1.0,-1.0,-1.0,-1.0,-1.0,-1.0,-1.0,93.435,-1.0,-1.0,-1.0,-1.0,-1.0,-1.0,-1.0,-1.0,93.403,-1.0,-1.0,93.43,-1.0,93.51,93.51,-1.0,-1.0,-1.0,93.51,-1.0,-1.0,93.45,-1.0,-1.0,-1.0,-1.0,93.522,93.604,-1.0,-1.0,-1.0,-1.0,93.54,93.59,-1.0,93.56,-1.0,-1.0,-1.0,-1.0,-1.0,-1.0,-1.0,-1.0,-1.0,-1.0,-1.0,-1.0,93.61,93.58,-1.0,-1.0,-1.0,-1.0,93.55,-1.0,-1.0,93.55,93.56,93.56,93.5,93.495,-1.0,93.45,-1.0,-1.0,-1.0,93.358,93.367,-1.0,93.365,-1.0,93.36,93.361,-1.0,-1.0,93.39,93.425,93.513,-1.0,-1.0,-1.0,-1.0,-1.0,93.49,-1.0,93.433,-1.0,93.428,-1.0,-1.0,-1.0,93.48,93.548,93.58,93.635,93.635,93.727,93.691,93.71,93.747,93.672,93.66,-1.0,93.63,93.605,93.59,93.625,93.565,93.568,93.539,93.56,93.538,93.544,93.645,-1.0,93.681,93.76,93.62,93.583,93.615
2019-05-21,94.246,94.31,94.41,-1.0,94.198,94.25,94.179,94.386,-1.0,-1.0,-1.0,94.63,94.77,94.81,94.805,94.65,94.74,-1.0,-1.0,-1.0,95.01,95.03,95.05,95.02,95.035,95.02,95.03,95.08,95.05,95.045,94.983,-1.0,95.189,95.255,95.2,95.119,-1.0,95.21,-1.0,95.015,94.97,95.06,95.139,95.152,-1.0,95.119,-1.0,95.185,95.05,95.01,-1.0,-1.0,94.99,94.885,94.86,-1.0,95.035,94.995,94.96,94.82,-1.0,-1.0,-1.0,94.925,94.93,-1.0,94.92,94.81,94.775,94.72,94.805,94.733,94.72,94.791,94.88,-1.0,94.93,95.0,94.978,94.942,-1.0,-1.0,94.985,94.945,94.947,-1.0,94.984,95.09,95.028,-1.0,95.145,95.168,-1.0,95.044,95.02,-1.0,95.135,-1.0,94.96,94.97,94.94,-1.0,-1.0,-1.0,94.985,95.11,95.013,95.002,94.987,-1.0,95.085,95.059,-1.0,-1.0,-1.0,95.183,95.198,-1.0,-1.0,95.03,-1.0,-1.0,-1.0,-1.0,-1.0,-1.0,-1.0,-1.0,-1.0,94.818,94.81,-1.0,94.89,94.91,-1.0,-1.0,94.875,94.9,-1.0,-1.0,94.8,-1.0,94.663,-1.0,94.62,-1.0,94.609,94.67,94.645,94.72,-1.0,-1.0,94.78,94.742,94.77,94.85,94.8,-1.0,-1.0,-1.0,-1.0,94.905,-1.0,94.872,94.95,-1.0,-1.0,94.885,94.89,94.922,-1.0,-1.0,-1.0,95.015,94.97,-1.0,-1.0,-1.0,94.98,94.99,94.972,-1.0,-1.0,-1.0,-1.0,-1.0,-1.0,95.052,-1.0,-1.0,-1.0,-1.0,-1.0,-1.0,95.0,-1.0,95.031,95.006,-1.0,-1.0,95.075,-1.0,95.05,-1.0,95.06,-1.0,-1.0,-1.0,-1.0,95.04,-1.0,-1.0,95.057,95.07,95.03,95.029,94.97,94.9,94.89,94.89,-1.0,-1.0,-1.0,94.93,94.939,-1.0,-1.0,-1.0,-1.0,-1.0,-1.0,94.86,-1.0,94.889,-1.0,-1.0,94.86,-1.0,94.87,-1.0,-1.0,94.959,-1.0,-1.0,-1.0,-1.0,94.93,94.94,-1.0,94.972,94.975,-1.0,-1.0,-1.0,-1.0,-1.0,-1.0,-1.0,-1.0,-1.0,-1.0,-1.0,-1.0,-1.0,-1.0,-1.0,94.99,-1.0,94.99,-1.0,95.0,-1.0,-1.0,95.06,-1.0,-1.0,-1.0,-1.0,-1.0,-1.0,-1.0,-1.0,95.13,95.13,95.16,95.18,95.21,95.21,-1.0,95.2,-1.0,-1.0,95.2,-1.0,95.224,95.218,95.14,95.207,-1.0,-1.0,-1.0,95.16,95.19,95.205,95.21,95.21,-1.0,-1.0,-1.0,95.26,95.345,95.34,-1.0,-1.0,-1.0,-1.0,-1.0,95.47,95.545,95.56,-1.0,-1.0,95.505,95.53,-1.0,-1.0,95.48,95.465,-1.0,95.46,95.465,95.48,95.445,-1.0,95.46,-1.0,-1.0,-1.0,-1.0,95.51,-1.0,-1.0,-1.0,95.46,-1.0,-1.0,-1.0,-1.0,-1.0,-1.0,95.397,-1.0,95.392,95.4,95.37,95.37,-1.0,95.515,95.548,95.582,95.605,95.641,95.67,95.63,95.63,95.685,95.745,-1.0,95.79,-1.0,95.905,95.897,95.865,95.86,95.869,-1.0,95.865,95.855,95.89,95.88,95.865,95.876,-1.0,95.878,95.851,95.835,95.786,95.769,95.778,95.725
2019-05-22,-1.0,95.099,95.34,95.38,94.91,94.914,-1.0,-1.0,-1.0,-1.0,94.995,94.971,94.95,-1.0,94.97,95.035,-1.0,-1.0,-1.0,94.84,94.915,94.92,94.86,-1.0,95.016,94.94,95.1,95.095,95.15,95.293,95.29,95.28,95.262,95.218,-1.0,95.23,95.127,95.004,-1.0,-1.0,94.965,94.853,-1.0,94.791,-1.0,94.85,94.88,-1.0,-1.0,-1.0,94.65,94.615,94.63,-1.0,-1.0,94.79,-1.0,94.645,94.83,94.8,94.63,-1.0,-1.0,94.568,94.53,94.47,-1.0,-1.0,94.18,94.202,94.19,94.152,-1.0,-1.0,93.96,93.927,-1.0,93.97,-1.0,-1.0,93.879,-1.0,93.87,93.85,93.88,-1.0,-1.0,-1.0,-1.0,93.63,-1.0,-1.0,93.47,93.36,93.45,-1.0,93.427,93.493,93.505,93.541,93.588,93.556,93.606,93.538,93.511,93.536,-1.0,-1.0,93.672,-1.0,93.615,-1.0,93.39,-1.0,-1.0,-1.0,93.265,93.24,-1.0,-1.0,-1.0,-1.0,93.41,93.336,93.259,-1.0,93.219,93.155,93.103,93.157,93.17,-1.0,93.224,93.221,93.245,93.237,-1.0,93.21,93.28,93.305,93.365,93.319,93.15,93.152,93.16,93.12,-1.0,93.094,-1.0,-1.0,-1.0,92.89,92.84,-1.0,92.93,-1.0,92.79,-1.0,92.842,92.815,92.815,92.829,92.829,-1.0,92.76,92.83,-1.0,-1.0,92.78,-1.0,-1.0,92.859,-1.0,-1.0,-1.0,92.895,92.848,-1.0,-1.0,-1.0,-1.0,92.99,-1.0,92.91,-1.0,-1.0,-1.0,-1.0,92.944,93.0,-1.0,-1.0,92.76,-1.0,-1.0,-1.0,92.78,-1.0,-1.0,-1.0,-1.0,92.69,-1.0,-1.0,92.745,-1.0,92.935,92.871,-1.0,-1.0,-1.0,-1.0,92.815,-1.0,-1.0,92.65,-1.0,-1.0,-1.0,-1.0,-1.0,92.625,-1.0,-1.0,-1.0,-1.0,-1.0,-1.0,-1.0,-1.0,-1.0,-1.0,-1.0,-1.0,92.557,92.575,92.63,-1.0,-1.0,-1.0,92.67,-1.0,-1.0,-1.0,-1.0,-1.0,-1.0,-1.0,-1.0,92.642,92.64,92.802,92.77,92.835,92.82,92.775,-1.0,-1.0,-1.0,-1.0,92.81,-1.0,92.755,92.735,92.75,92.835,-1.0,-1.0,-1.0,-1.0,-1.0,-1.0,92.769,92.77,92.625,92.626,-1.0,92.642,92.615,-1.0,-1.0,-1.0,-1.0,-1.0,92.59,92.55,92.56,92.525,92.515,92.51,92.57,92.54,92.54,92.592,92.561,92.578,92.65,92.6,92.587,-1.0,92.5,-1.0,-1.0,92.59,92.57,-1.0,-1.0,-1.0,-1.0,-1.0,-1.0,-1.0,92.63,-1.0,-1.0,92.61,92.615,92.677,92.68,-1.0,92.67,92.688,92.66,92.57,92.535,-1.0,92.526,-1.0,92.459,92.422,-1.0,92.575,92.508,-1.0,-1.0,92.65,92.79,-1.0,92.8,92.807,-1.0,-1.0,92.705,92.724,92.71,92.75,92.68,-1.0,92.615,92.7,-1.0,92.693,92.745,92.82,-1.0,92.952,-1.0,92.987,-1.0,92.84,92.824,92.83,-1.0,-1.0,-1.0,92.75,92.714,92.73,92.725,92.77,-1.0,-1.0,92.84,92.79,92.81,92.8,92.797,92.742,92.701,92.731,92.824,92.863,92.895,92.927,92.955,92.946,92.952,93.01,92.98,93.007
2019-05-23,90.56,90.183,90.28,89.85,89.716,89.43,-1.0,89.228,89.23,88.983,88.618,88.73,-1.0,88.068,88.24,88.213,88.337,88.363,88.366,88.597,-1.0,88.324,88.597,88.63,-1.0,88.412,-1.0,88.527,-1.0,88.33,88.338,88.371,88.483,88.553,88.595,88.429,88.563,88.5,88.422,88.259,88.225,88.129,88.227,88.047,88.081,88.173,88.082,88.022,88.027,87.747,87.625,87.63,87.587,87.594,87.58,87.523,87.423,87.471,87.443,87.496,87.406,87.456,87.672,87.646,87.831,87.875,-1.0,-1.0,87.942,87.928,88.012,87.833,87.975,87.843,87.86,87.778,87.945,87.91,87.903,87.996,88.038,88.011,87.996,88.1,88.255,88.185,88.225,88.28,88.18,88.168,-1.0,88.049,-1.0,88.198,88.344,88.36,88.231,88.373,88.38,-1.0,-1.0,88.43,88.52,88.54,-1.0,88.595,-1.0,88.6,88.56,88.516,88.54,88.543,88.52,88.374,88.222,88.378,88.388,88.31,88.158,88.238,88.151,88.03,88.196,88.185,88.12,-1.0,-1.0,-1.0,-1.0,88.157,88.044,-1.0,88.054,88.125,88.161,88.11,88.085,88.02,88.1,-1.0,88.103,88.116,88.13,88.09,-1.0,87.995,87.983,88.02,87.998,87.998,88.071,-1.0,88.139,88.153,88.305,88.26,88.299,88.242,88.243,88.15,-1.0,88.34,-1.0,88.31,88.33,88.36,88.28,88.21,88.18,88.153,88.195,-1.0,88.104,88.055,88.088,88.156,88.1,88.088,88.091,-1.0,-1.0,88.13,88.109,88.115,88.132,88.174,88.104,88.12,88.118,88.15,88.094,88.11,88.132,88.112,88.073,88.065,88.133,88.203,88.194,88.23,-1.0,-1.0,88.323,88.253,88.36,-1.0,88.17,88.155,-1.0,88.127,88.06,88.065,88.0,88.038,88.005,-1.0,-1.0,-1.0,88.08,-1.0,-1.0,88.03,88.05,87.94,87.965,87.893,87.868,87.92,87.878,-1.0,87.843,-1.0,-1.0,-1.0,-1.0,-1.0,87.915,-1.0,-1.0,88.065,-1.0,88.04,87.992,-1.0,-1.0,88.12,-1.0,88.16,88.262,88.235,-1.0,88.18,-1.0,-1.0,-1.0,88.08,88.052,88.049,88.057,88.074,88.039,88.004,88.031,88.0,87.911,87.88,-1.0,87.899,87.955,87.998,88.051,88.051,88.067,-1.0,87.913,87.94,-1.0,87.959,87.933,87.98,87.94,87.921,87.923,87.9,-1.0,87.91,87.95,87.927,-1.0,-1.0,87.99,88.045,88.149,88.183,88.2,88.17,88.16,88.155,88.167,88.113,88.13,88.08,88.02,-1.0,88.105,88.16,88.138,-1.0,88.148,88.1,88.1,88.095,88.045,87.947,87.91,87.95,-1.0,87.943,-1.0,-1.0,87.862,87.95,87.96,87.964,88.04,88.073,88.03,88.03,-1.0,88.065,-1.0,88.08,88.047,-1.0,87.951,87.96,-1.0,87.955,87.955,87.951,-1.0,-1.0,87.935,87.89,87.965,-1.0,88.055,88.12,88.349,88.282,-1.0,88.44,-1.0,88.51,88.468,88.43,-1.0,88.593,-1.0,-1.0,88.57,-1.0,88.701,88.846,88.879,88.906,89.002,88.95,88.93,88.88,88.792,88.715,88.688,88.6,88.647,88.758,88.738,88.649,88.71,88.705,88.673,88.697,88.665,88.751,88.803,88.807,88.736,88.728,88.707,88.777
2019-05-24,-1.0,-1.0,-1.0,89.99,-1.0,-1.0,89.615,89.36,89.5,-1.0,89.5,-1.0,-1.0,89.18,89.16,-1.0,-1.0,89.15,89.005,-1.0,-1.0,88.83,88.87,88.92,88.9,88.913,89.097,-1.0,-1.0,89.13,89.15,89.165,89.208,89.276,89.278,89.321,-1.0,89.077,-1.0,88.94,88.89,89.0,89.005,88.969,88.954,-1.0,89.063,89.122,89.089,89.09,89.003,89.11,89.225,89.166,89.112,89.04,89.03,89.103,89.09,89.025,88.965,88.942,88.915,-1.0,88.75,88.603,88.53,88.57,-1.0,-1.0,88.475,88.427,-1.0,88.398,88.353,88.365,-1.0,88.24,-1.0,-1.0,-1.0,88.032,-1.0,-1.0,87.96,-1.0,87.91,-1.0,88.06,88.03,87.95,87.895,87.912,87.941,87.93,87.815,87.768,87.83,87.75,-1.0,-1.0,87.41,87.29,-1.0,87.305,-1.0,-1.0,-1.0,-1.0,-1.0,87.33,-1.0,87.42,87.423,-1.0,87.512,87.515,87.52,87.47,87.37,87.438,87.487,87.43,-1.0,87.415,-1.0,-1.0,-1.0,87.385,87.37,-1.0,87.33,87.412,-1.0,87.335,87.33,87.333,-1.0,-1.0,-1.0,-1.0,87.25,87.34,-1.0,-1.0,87.33,-1.0,-1.0,87.23,87.22,87.175,87.157,87.14,87.155,87.162,-1.0,-1.0,87.165,87.15,87.12,-1.0,-1.0,87.109,-1.0,-1.0,-1.0,87.005,86.96,86.925,-1.0,86.98,87.0,-1.0,87.01,-1.0,87.0,-1.0,86.96,87.026,87.007,87.0,87.018,87.088,87.233,87.222,87.285,-1.0,-1.0,-1.0,87.36,-1.0,87.243,-1.0,87.25,87.25,-1.0,87.24,87.27,87.263,87.26,-1.0,-1.0,-1.0,-1.0,87.21,87.141,87.17,87.17,87.155,87.26,87.27,-1.0,87.26,87.252,87.24,-1.0,-1.0,-1.0,87.14,87.17,-1.0,87.109,87.165,87.15,-1.0,87.164,87.093,87.196,87.165,87.21,87.11,87.095,-1.0,87.082,87.103,87.082,87.112,87.071,87.07,87.0,87.051,87.08,-1.0,87.055,87.045,-1.0,-1.0,-1.0,-1.0,87.085,87.01,-1.0,-1.0,87.005,-1.0,87.004,-1.0,-1.0,-1.0,-1.0,-1.0,87.015,87.004,87.0,-1.0,86.935,-1.0,-1.0,86.908,87.005,87.0,86.98,87.012,86.99,-1.0,86.97,86.97,-1.0,86.9,86.943,-1.0,86.885,86.81,86.797,86.813,86.8,86.78,-1.0,-1.0,-1.0,86.767,86.75,86.745,86.739,86.752,-1.0,-1.0,-1.0,86.965,86.88,86.895,86.85,-1.0,-1.0,86.83,86.8,-1.0,-1.0,86.783,86.75,86.757,86.75,86.745,86.75,86.752,86.762,-1.0,-1.0,86.92,86.88,86.89,86.905,86.91,-1.0,86.87,86.89,86.886,-1.0,86.895,86.919,86.963,86.885,-1.0,86.956,86.94,86.903,-1.0,86.855,-1.0,86.884,86.905,86.987,86.984,-1.0,87.02,87.049,87.093,87.07,87.053,86.955,86.945,86.982,86.956,86.9,86.872,86.868,86.9,86.875,86.856,86.911,86.965,86.927,86.974,86.944,86.948,86.921,86.943,86.925,86.855,86.903,86.927,86.972,87.012,87.025,87.048,-1.0,87.11,87.15,87.23,87.281,87.245,87.237,87.172,87.16,87.211,87.269,87.183,87.209,87.189,87.184
2019-05-28,87.59,87.704,87.797,87.97,87.82,87.732,87.905,87.858,87.785,87.8,87.775,87.71,87.935,87.948,87.687,87.77,87.86,87.91,87.92,88.05,-1.0,87.94,-1.0,88.015,88.23,-1.0,-1.0,88.085,-1.0,88.16,88.121,88.147,88.147,88.085,87.92,88.07,88.048,-1.0,88.14,88.151,87.91,87.79,87.773,87.861,87.863,87.895,87.955,87.822,87.685,87.739,87.748,87.793,87.89,87.803,87.781,87.755,87.688,87.665,87.586,87.651,87.69,87.627,87.642,87.608,87.55,87.442,87.287,87.233,87.25,87.195,-1.0,87.222,87.245,87.261,87.259,87.19,87.29,87.405,87.395,87.4,87.42,87.245,87.082,87.04,87.15,87.13,87.175,87.053,87.195,87.155,87.33,87.385,87.533,87.48,87.412,87.511,87.63,87.686,87.721,87.72,87.654,87.612,87.585,87.699,87.763,87.66,-1.0,87.677,87.696,-1.0,87.715,-1.0,-1.0,87.707,87.655,87.675,87.61,-1.0,87.53,87.416,87.35,87.288,87.272,87.24,87.297,87.352,87.46,-1.0,87.49,87.41,87.541,87.57,-1.0,87.64,87.593,87.595,-1.0,87.567,-1.0,-1.0,87.413,87.46,87.425,87.33,87.328,87.245,87.265,-1.0,87.368,87.365,87.407,87.414,87.415,-1.0,87.37,-1.0,-1.0,87.415,-1.0,87.365,-1.0,87.355,-1.0,87.505,-1.0,-1.0,-1.0,-1.0,87.535,87.58,87.66,-1.0,87.583,87.61,87.627,87.603,87.659,87.672,-1.0,87.61,87.63,87.62,87.54,87.478,-1.0,-1.0,87.515,-1.0,-1.0,87.43,-1.0,-1.0,87.38,-1.0,-1.0,-1.0,87.39,-1.0,87.44,87.4,-1.0,-1.0,-1.0,87.42,87.38,87.32,87.35,87.327,-1.0,-1.0,87.28,-1.0,87.447,87.523,87.488,-1.0,87.518,-1.0,87.55,87.56,-1.0,-1.0,87.62,87.605,87.57,87.59,-1.0,87.72,87.64,87.55,-1.0,87.56,87.594,-1.0,-1.0,-1.0,87.544,87.608,-1.0,87.59,-1.0,87.58,87.56,87.605,87.64,-1.0,87.696,87.8,-1.0,-1.0,87.715,-1.0,-1.0,-1.0,-1.0,-1.0,87.67,-1.0,87.621,87.67,87.74,87.765,87.695,-1.0,87.61,87.653,87.635,87.58,87.622,87.69,87.61,-1.0,87.552,-1.0,87.498,-1.0,-1.0,87.49,-1.0,-1.0,87.5,-1.0,-1.0,87.33,87.405,87.407,87.427,87.412,87.49,-1.0,-1.0,-1.0,87.47,87.45,87.44,87.4,-1.0,87.463,-1.0,87.43,87.343,87.425,87.41,87.407,87.409,87.33,-1.0,87.253,87.28,87.25,87.14,-1.0,87.03,87.08,87.03,-1.0,87.15,87.204,87.168,87.225,-1.0,87.29,-1.0,87.309,87.375,-1.0,-1.0,87.415,-1.0,-1.0,87.424,-1.0,87.375,87.383,87.38,87.442,87.585,87.585,87.5,87.447,87.439,87.446,87.39,87.39,87.439,87.54,-1.0,-1.0,-1.0,87.525,87.455,-1.0,87.46,87.47,-1.0,87.45,-1.0,87.46,87.468,87.416,87.328,87.238,87.296,87.3,87.323,87.28,87.265,87.295,87.29,87.301,87.294,87.356,87.339,87.285,87.23,87.278,87.263,87.279,87.307,-1.0,87.321,87.269,87.257,87.252,87.28,87.316,87.248,87.24,87.282,87.223
2019-05-29,-1.0,85.965,86.055,85.981,85.691,85.635,85.855,85.97,85.651,85.593,85.608,85.645,85.613,85.605,85.684,85.58,85.56,85.451,85.34,85.31,85.293,-1.0,85.303,85.242,85.366,85.4,85.41,85.44,85.438,85.35,85.258,85.198,85.245,85.245,85.339,85.317,-1.0,-1.0,85.255,85.172,85.34,85.325,85.365,85.543,85.595,-1.0,-1.0,85.808,85.81,85.706,85.65,85.729,85.703,-1.0,85.722,85.7,-1.0,85.855,85.883,85.84,85.874,85.85,-1.0,-1.0,85.68,85.69,85.854,85.773,85.757,-1.0,85.809,85.74,85.745,85.78,85.84,85.742,85.772,85.832,85.786,85.82,85.827,-1.0,85.64,-1.0,85.695,85.692,-1.0,-1.0,85.71,85.73,85.659,85.71,85.727,85.715,85.682,85.605,85.55,85.601,85.631,85.55,-1.0,85.33,-1.0,85.39,-1.0,-1.0,85.04,85.19,85.17,85.14,85.002,84.935,84.825,-1.0,84.84,84.861,84.93,-1.0,-1.0,-1.0,84.895,85.05,-1.0,84.93,84.97,85.016,84.994,-1.0,-1.0,84.77,84.7,84.66,-1.0,84.41,84.47,84.445,84.525,84.49,84.536,84.55,84.54,84.47,84.368,84.3,-1.0,84.335,-1.0,-1.0,-1.0,-1.0,84.44,84.465,84.41,84.34,-1.0,84.44,84.572,84.54,-1.0,-1.0,84.66,84.668,84.751,84.77,84.81,-1.0,84.898,84.87,-1.0,84.888,84.813,84.75,84.7,-1.0,84.645,-1.0,84.74,84.733,-1.0,84.69,-1.0,-1.0,-1.0,84.844,-1.0,84.8,-1.0,84.77,84.83,84.937,84.917,-1.0,-1.0,-1.0,-1.0,85.0,85.075,-1.0,-1.0,84.9,-1.0,-1.0,84.87,84.84,84.937,84.92,-1.0,84.95,84.935,84.95,84.985,85.012,-1.0,-1.0,-1.0,-1.0,-1.0,85.29,85.414,85.514,85.6,85.706,-1.0,85.557,85.475,85.385,85.418,-1.0,85.45,-1.0,85.47,-1.0,-1.0,85.46,85.49,-1.0,-1.0,-1.0,85.675,-1.0,85.695,85.785,85.885,-1.0,85.86,85.92,-1.0,86.0,85.9,-1.0,85.91,85.84,-1.0,85.77,85.821,85.803,85.751,85.75,85.79,-1.0,-1.0,-1.0,-1.0,-1.0,-1.0,-1.0,-1.0,85.62,-1.0,-1.0,85.625,-1.0,85.61,85.65,-1.0,85.65,-1.0,85.75,85.71,85.7,85.64,85.64,85.65,85.53,85.53,85.55,-1.0,-1.0,-1.0,-1.0,85.62,85.695,85.704,85.724,-1.0,85.693,85.79,85.83,85.83,85.85,-1.0,85.76,85.75,-1.0,85.826,85.78,-1.0,85.859,85.874,85.858,85.813,85.785,85.813,85.796,85.72,85.71,-1.0,-1.0,-1.0,85.755,85.73,85.733,85.703,85.743,-1.0,85.75,85.853,85.869,85.943,85.951,85.942,85.921,85.888,85.855,85.873,85.83,85.815,85.825,85.889,85.87,85.87,-1.0,85.91,-1.0,-1.0,86.03,85.985,85.999,86.024,86.087,86.067,86.19,86.207,86.154,86.172,86.201,86.223,86.234,86.15,86.153,86.159,86.165,86.13,86.12,86.227,86.367,86.35,86.343,86.3,86.315,86.36,86.405,86.355,86.422,86.41,86.387,86.35,86.41,86.425,86.535,86.435,86.414,86.447,86.467,86.51,86.55,86.534,86.612,86.563,86.538
2019-05-30,-1.0,-1.0,86.445,86.343,-1.0,86.001,86.07,86.061,85.774,-1.0,-1.0,85.87,85.945,86.07,85.993,86.0,85.98,-1.0,85.97,85.975,85.91,85.9,85.994,86.004,85.925,86.002,86.04,86.096,86.035,86.047,85.824,85.855,85.878,85.91,-1.0,85.754,-1.0,85.55,85.61,85.628,85.654,85.69,85.763,-1.0,85.703,85.735,85.717,85.588,85.432,85.405,-1.0,85.39,85.39,85.355,85.363,85.29,85.362,85.358,85.34,85.321,85.337,85.31,85.215,85.23,85.122,85.128,-1.0,85.062,85.07,85.075,85.05,84.915,84.939,84.915,-1.0,85.036,84.98,85.006,84.95,84.875,84.818,84.785,84.749,84.826,84.895,84.982,85.099,85.251,85.318,85.267,84.928,84.653,84.409,84.289,84.49,84.505,84.339,84.269,84.323,84.411,84.393,84.422,84.606,84.703,84.75,84.682,84.64,84.511,84.437,84.354,84.324,84.22,83.99,-1.0,83.935,83.906,83.953,83.967,-1.0,83.87,83.87,84.035,83.96,84.01,84.12,84.199,84.225,84.32,84.333,84.323,84.36,84.276,84.34,84.253,84.25,84.185,84.175,84.158,84.142,84.025,83.99,83.953,83.877,83.841,83.858,83.922,83.95,83.972,84.049,84.079,84.129,-1.0,84.055,84.03,84.065,84.032,84.112,84.131,84.096,84.047,84.023,84.0,84.052,-1.0,84.052,84.147,84.189,-1.0,84.324,84.346,84.315,84.298,84.277,84.3,-1.0,84.245,84.189,84.201,-1.0,84.191,84.16,84.126,84.115,-1.0,84.16,84.25,84.25,84.271,84.33,84.326,84.344,84.32,-1.0,84.29,84.35,84.37,84.331,84.452,84.461,-1.0,84.468,84.466,84.475,84.47,84.465,84.435,84.463,84.454,84.41,84.445,84.436,84.41,-1.0,-1.0,84.429,84.4,84.338,84.28,84.242,84.22,84.244,84.221,84.24,84.19,84.215,84.219,84.24,84.246,84.225,-1.0,84.345,84.365,84.358,84.32,84.365,84.387,84.39,84.38,84.354,84.412,84.41,84.294,84.265,84.234,84.213,84.16,84.122,84.124,84.128,84.117,84.08,84.076,84.17,84.194,84.18,84.145,84.163,84.134,84.14,84.133,84.145,84.207,84.287,84.335,84.358,84.399,84.346,84.343,84.35,84.383,84.328,84.382,84.407,84.44,84.43,84.42,84.39,84.313,-1.0,84.26,84.282,84.293,-1.0,84.249,84.22,-1.0,84.115,84.106,84.115,84.135,84.17,84.162,84.138,84.116,84.069,84.041,84.043,84.1,84.135,84.125,-1.0,84.031,84.03,84.03,84.052,-1.0,-1.0,83.95,83.95,83.95,84.0,84.047,84.0,83.942,83.95,83.925,83.986,84.016,83.975,84.02,84.054,84.052,84.06,84.052,84.075,-1.0,84.206,84.185,-1.0,84.188,84.137,84.137,84.113,84.138,84.16,84.145,84.121,83.986,83.904,84.019,84.02,84.032,84.09,84.131,84.14,84.077,84.042,84.053,84.043,84.081,84.031,-1.0,84.02,84.006,84.0,83.935,83.915,83.96,83.998,84.011,83.95,83.927,84.009,84.005,83.98,84.037,84.07,84.119,84.114,84.078,84.064,84.05,84.061,84.031,84.028,84.044,84.038,84.064,84.012,84.002,84.012,84.017,84.028,84.022,83.99,83.934,83.925,83.921,83.891,83.918
2019-05-31,82.331,82.232,82.452,82.781,82.875,82.788,82.85,82.865,82.795,82.877,82.85,82.976,83.058,83.021,83.07,83.182,83.292,83.365,83.358,83.231,83.157,83.02,-1.0,-1.0,83.02,83.009,83.086,83.0,83.025,83.202,83.197,83.168,83.148,83.186,83.093,83.1,83.0,83.052,83.043,83.01,83.028,82.977,82.968,82.92,82.85,82.915,83.01,-1.0,83.18,83.204,83.258,83.368,-1.0,83.535,83.588,83.464,83.47,83.536,83.493,83.55,83.565,83.572,83.52,83.58,83.546,83.565,83.724,83.733,83.773,83.76,83.715,83.597,83.599,83.531,83.382,83.474,83.478,83.43,83.39,-1.0,83.577,83.56,83.564,83.645,83.598,83.56,83.45,83.43,83.47,83.433,83.388,83.42,83.402,83.405,83.193,83.078,-1.0,83.105,83.13,-1.0,83.205,-1.0,83.195,83.2,83.101,83.186,83.149,-1.0,-1.0,83.114,83.108,83.171,83.23,-1.0,83.41,-1.0,-1.0,83.306,83.371,83.44,83.375,83.369,83.398,83.32,83.36,83.375,83.395,83.4,83.32,-1.0,83.31,-1.0,83.34,83.253,83.254,83.22,83.15,-1.0,-1.0,83.129,83.167,83.218,83.185,-1.0,83.09,83.13,83.191,-1.0,83.255,83.33,83.286,83.281,83.234,83.167,-1.0,83.08,83.132,83.09,83.11,83.1,83.09,83.09,83.102,83.089,83.07,83.099,83.11,-1.0,83.15,-1.0,-1.0,83.205,83.162,83.079,83.105,83.084,83.052,83.08,83.073,-1.0,83.081,83.095,83.05,-1.0,83.09,83.055,83.058,-1.0,82.966,82.945,82.902,82.917,-1.0,-1.0,82.915,82.91,-1.0,82.93,82.913,82.938,-1.0,-1.0,82.95,82.91,-1.0,82.932,82.886,82.895,82.87,82.855,82.89,-1.0,82.94,-1.0,82.899,82.91,82.86,82.845,82.814,82.815,-1.0,82.92,82.894,82.868,82.84,82.823,-1.0,82.84,-1.0,-1.0,82.79,82.733,82.65,-1.0,82.725,82.705,-1.0,-1.0,82.691,82.698,-1.0,-1.0,82.71,82.73,82.7,82.715,82.705,82.68,82.695,-1.0,-1.0,82.57,82.55,82.53,-1.0,-1.0,82.545,82.532,82.618,-1.0,82.54,82.48,-1.0,82.49,-1.0,82.53,82.57,82.56,-1.0,-1.0,82.555,82.43,-1.0,-1.0,82.363,82.347,82.375,-1.0,82.35,82.38,82.33,82.31,82.29,-1.0,82.259,82.242,82.24,82.271,82.272,-1.0,82.225,82.23,82.24,82.243,82.203,82.149,82.139,82.17,82.129,82.135,82.13,82.09,-1.0,82.05,82.085,82.11,82.118,82.15,82.128,82.1,82.127,82.14,82.255,82.297,82.284,82.34,82.31,82.3,82.31,82.315,82.353,82.383,82.4,82.49,82.45,82.413,82.46,82.466,82.455,-1.0,82.355,82.32,82.345,82.29,82.205,82.154,82.134,82.085,82.057,82.017,81.995,82.009,82.013,82.03,81.993,82.025,82.013,81.985,81.99,81.97,82.057,-1.0,81.997,81.952,81.99,81.979,81.99,81.905,81.843,81.98,-1.0,81.97,81.96,82.0,81.958,81.941,81.926,81.92,81.885,81.89,81.91,81.907,81.935,81.949,81.932,81.932,81.94,81.986,82.06,82.038,82.021,81.956,81.932,81.935,81.937,81.922,81.937,81.939,81.951,81.927
