,09:30,09:31,09:32,09:33,09:34,09:35,09:36,09:37,09:38,09:39,09:40,09:41,09:42,09:43,09:44,09:45,09:46,09:47,09:48,09:49,09:50,09:51,09:52,09:53,09:54,09:55,09:56,09:57,09:58,09:59,10:00,10:01,10:02,10:03,10:04,10:05,10:06,10:07,10:08,10:09,10:10,10:11,10:12,10:13,10:14,10:15,10:16,10:17,10:18,10:19,10:20,10:21,10:22,10:23,10:24,10:25,10:26,10:27,10:28,10:29,10:30,10:31,10:32,10:33,10:34,10:35,10:36,10:37,10:38,10:39,10:40,10:41,10:42,10:43,10:44,10:45,10:46,10:47,10:48,10:49,10:50,10:51,10:52,10:53,10:54,10:55,10:56,10:57,10:58,10:59,11:00,11:01,11:02,11:03,11:04,11:05,11:06,11:07,11:08,11:09,11:10,11:11,11:12,11:13,11:14,11:15,11:16,11:17,11:18,11:19,11:20,11:21,11:22,11:23,11:24,11:25,11:26,11:27,11:28,11:29,11:30,11:31,11:32,11:33,11:34,11:35,11:36,11:37,11:38,11:39,11:40,11:41,11:42,11:43,11:44,11:45,11:46,11:47,11:48,11:49,11:50,11:51,11:52,11:53,11:54,11:55,11:56,11:57,11:58,11:59,12:00,12:01,12:02,12:03,12:04,12:05,12:06,12:07,12:08,12:09,12:10,12:11,12:12,12:13,12:14,12:15,12:16,12:17,12:18,12:19,12:20,12:21,12:22,12:23,12:24,12:25,12:26,12:27,12:28,12:29,12:30,12:31,12:32,12:33,12:34,12:35,12:36,12:37,12:38,12:39,12:40,12:41,12:42,12:43,12:44,12:45,12:46,12:47,12:48,12:49,12:50,12:51,12:52,12:53,12:54,12:55,12:56,12:57,12:58,12:59,13:00,13:01,13:02,13:03,13:04,13:05,13:06,13:07,13:08,13:09,13:10,13:11,13:12,13:13,13:14,13:15,13:16,13:17,13:18,13:19,13:20,13:21,13:22,13:23,13:24,13:25,13:26,13:27,13:28,13:29,13:30,13:31,13:32,13:33,13:34,13:35,13:36,13:37,13:38,13:39,13:40,13:41,13:42,13:43,13:44,13:45,13:46,13:47,13:48,13:49,13:50,13:51,13:52,13:53,13:54,13:55,13:56,13:57,13:58,13:59,14:00,14:01,14:02,14:03,14:04,14:05,14:06,14:07,14:08,14:09,14:10,14:11,14:12,14:13,14:14,14:15,14:16,14:17,14:18,14:19,14:20,14:21,14:22,14:23,14:24,14:25,14:26,14:27,14:28,14:29,14:30,14:31,14:32,14:33,14:34,14:35,14:36,14:37,14:38,14:39,14:40,14:41,14:42,14:43,14:44,14:45,14:46,14:47,14:48,14:49,14:50,14:51,14:52,14:53,14:54,14:55,14:56,14:57,14:58,14:59,15:00,15:01,15:02,15:03,15:04,15:05,15:06,15:07,15:08,15:09,15:10,15:11,15:12,15:13,15:14,15:15,15:16,15:17,15:18,15:19,15:20,15:21,15:22,15:23,15:24,15:25,15:26,15:27,15:28,15:29,15:30,15:31,15:32,15:33,15:34,15:35,15:36,15:37,15:38,15:39,15:40,15:41,15:42,15:43,15:44,15:45,15:46,15:47,15:48,15:49,15:50,15:51,15:52,15:53,15:54,15:55,15:56,15:57,15:58,15:59
2019-04-01,96.12,96.13,95.79,95.64,95.91,95.9,96.35,96.14,95.97,96.27,96.16,96.25,,,95.99,,95.73,95.77,95.81,,95.82,,96.14,96.215,96.23,96.07,96.03,95.94,,95.85,96.09,,,96.18,96.44,96.455,,96.41,96.25,,96.1,96.09,,96.26,,96.19,,96.11,,96.075,96.14,96.11,96.17,96.11,96.11,96.065,,,,96.13,96.15,,,,,96.11,,96.34,,,96.3,,96.26,96.23,96.245,,96.29,96.31,96.31,96.435,,96.4,,96.37,96.32,96.38,96.5,96.56,,,,,96.62,96.78,96.73,96.615,96.585,96.53,96.48,96.48,96.475,,96.61,96.55,,96.52,96.52,,96.65,,96.515,,,,96.35,96.34,,,,96.41,96.37,96.37,96.29,96.22,96.29,96.3,96.25,,96.14,,,,,,,,95.97,95.97,,,96.04,,96.1,,96.28,,96.23,,96.37,,96.36,96.23,,,,96.26,,,,,96.19,96.23,,,,,,,,96.24,96.305,96.35,,,96.46,96.455,,96.41,,96.43,,96.5,,,96.47,,,,96.43,96.56,96.52,96.53,96.5,96.49,96.52,,96.56,,,96.6,,,,,,,,,,96.75,96.7,,,96.73,96.75,,96.69,96.68,96.71,,,,,,,,96.73,96.71,96.7,96.72,96.69,96.64,,96.725,,96.68,96.7,,96.74,96.74,96.77,,96.82,,,96.92,,96.77,,,96.83,,,96.79,,96.79,96.82,,96.84,96.88,,96.89,96.975,96.97,,96.92,,,,96.91,96.93,96.95,96.935,96.84,96.85,96.86,96.91,,96.94,97.02,97.04,97.04,97.07,97.01,97.07,97.1,97.1,97.1,97.11,97.11,,,,96.99,,,96.84,,96.81,96.845,96.84,96.87,96.91,,,96.98,,97.02,,97.01,97.0,96.94,,96.875,96.88,96.88,96.87,96.82,96.85,,96.88,,,96.81,96.81,,96.87,,96.89,96.88,96.91,,,96.9,96.91,96.88,,,96.84,,96.83,96.81,96.72,96.71,96.76,96.735,96.78,96.85,96.87,96.88,96.87,96.91,96.92,96.9,96.96,96.88,96.785,96.82,96.835,96.8,96.795,,96.805,96.78,96.745,96.74,96.8,96.9,96.87,96.8,96.845,96.9,96.93,96.945,96.97,96.925,96.915,96.93,96.93,96.93,96.91,96.91,97.015,96.96,96.94,97.0,97.04,97.03,97.04,96.97
2019-04-02,97.24,97.225,,97.3,,97.29,97.12,,,97.47,97.29,97.17,97.17,97.14,97.22,,97.01,97.015,97.01,96.96,96.91,96.87,96.91,96.965,96.99,97.07,97.21,97.31,97.35,97.325,,,97.67,,,97.665,97.535,,97.645,,,,,,,97.54,,,,97.56,97.59,97.73,,,97.63,97.47,,97.335,,,97.42,,,97.44,97.5,97.515,,,,97.15,,97.11,97.18,,,97.025,97.0,,97.05,,96.97,,96.87,96.945,96.97,96.84,96.71,96.65,96.73,96.605,96.67,,96.43,96.51,,96.575,96.59,96.51,96.65,96.515,96.53,96.57,96.605,96.445,96.25,96.22,96.25,96.48,96.505,96.5,96.515,96.55,,96.63,96.685,96.64,,96.56,,,,96.72,96.62,96.57,96.71,,,96.55,96.48,,96.54,,96.65,,96.73,,96.67,96.69,96.69,96.625,,,96.83,96.825,96.87,,96.83,96.85,,96.915,,,96.87,,,96.87,96.92,96.91,96.91,96.89,96.785,,,,,96.73,96.67,96.64,96.655,,,96.65,96.7,,96.63,,,96.48,96.4,,96.49,96.45,,96.44,,,96.57,,,,96.51,,,,,96.51,,,,,96.45,96.415,,,96.51,,96.49,96.48,,,,,96.48,,96.41,,,,,,96.66,96.57,,,,,96.56,96.55,,,,,,,,96.59,,,,,96.49,96.45,96.42,,,,96.53,,,,,,96.47,96.48,,,96.37,96.3,,,96.22,,96.33,,96.37,96.47,,,96.35,96.33,96.36,,,96.45,,96.53,96.5,,,,96.45,,96.51,96.4,,96.34,96.35,,96.33,96.315,96.26,,96.23,96.16,96.22,,,,96.295,,,,,,,96.31,,96.27,96.26,96.29,96.33,96.34,96.325,96.32,96.31,96.33,96.35,96.32,96.245,96.2,96.22,,96.21,96.1,,96.04,96.08,,96.21,96.19,96.19,96.28,96.265,96.28,96.3,96.34,96.31,,96.235,96.21,96.23,96.25,96.22,96.24,96.355,96.305,96.24,96.24,96.315,96.29,96.24,96.2,,96.25,96.245,96.17,96.14,96.165,96.17,,96.205,96.19,,,96.23,,96.265,,96.37,96.34,,96.35,96.38,96.32,96.28,96.29,96.325,96.33,96.35,96.305,96.3,96.29,96.265,96.255,96.3,96.235,96.195,96.18,96.15,96.07
2019-04-03,96.35,96.31,,96.12,,96.19,96.28,96.34,,96.08,96.015,96.025,96.09,96.14,96.135,96.18,96.21,96.19,96.01,96.125,96.145,95.98,,,95.955,95.98,95.95,95.845,95.85,95.78,95.65,95.555,95.58,95.43,95.45,95.485,,95.46,95.605,95.69,95.78,95.84,95.855,,95.81,95.83,95.985,96.13,96.12,,96.13,96.055,96.03,96.045,96.055,96.05,95.93,95.91,,,95.57,95.71,95.52,95.51,,,95.505,95.57,95.6,95.655,95.65,95.94,,95.94,,95.865,96.05,96.01,95.98,,96.08,,96.13,96.18,96.17,96.29,,96.09,96.11,96.02,95.995,96.09,96.145,96.23,,96.265,,,,,,95.96,95.87,95.77,,95.74,,95.71,,95.73,95.56,,95.5,,95.48,95.5,95.39,95.41,95.47,95.405,95.43,95.43,95.48,,95.36,95.43,95.33,,95.3,95.28,,,95.23,95.165,95.205,95.22,,95.13,,95.2,,95.31,95.36,95.35,95.39,95.38,,95.51,95.47,95.345,95.425,95.475,95.42,95.47,95.47,95.5,95.49,95.53,,95.6,95.56,95.485,95.38,95.32,95.33,95.41,95.38,95.46,95.41,95.4,95.4,95.38,95.35,95.38,95.44,95.46,95.36,95.45,95.3,95.27,95.345,95.32,95.355,95.32,95.145,95.12,95.16,,95.15,95.18,95.195,95.21,95.21,95.065,95.04,94.9,94.88,,94.885,94.85,94.865,94.915,94.84,94.8,94.78,94.73,94.77,,94.73,94.64,,,94.7,,,94.73,,94.68,,94.68,,,94.68,,,94.59,,94.52,94.51,,94.56,94.58,94.6,94.6,94.58,,,94.57,94.57,94.53,94.575,,94.52,,,94.52,,,94.51,,94.44,,94.355,94.355,94.4,94.37,94.36,94.35,94.36,94.29,94.275,94.26,,94.26,94.26,94.2,,94.125,94.11,94.13,94.13,94.105,94.05,93.92,94.01,94.0,94.005,,93.89,,,93.91,,,,,93.83,,93.82,93.8,93.83,93.96,93.95,94.0,93.98,94.06,,,,94.23,94.17,94.2,,94.21,94.19,94.19,,,94.28,94.24,94.225,94.3,94.25,94.14,94.155,94.22,94.19,94.21,94.195,94.225,94.23,,,94.4,94.39,94.36,94.375,94.36,,94.35,94.28,94.35,94.34,94.35,94.34,94.36,94.36,94.33,94.32,94.25,94.22,94.21,94.13,94.17,94.21,94.14,94.16,94.2,94.24,94.24,94.2,94.12,94.26,94.15,94.23,94.22,94.28,,94.315,94.4,94.355,94.355,94.35,94.355,94.355,94.245,94.345,94.33,94.28,,,94.3,94.365,94.35,94.375,94.36,94.32,,94.27,,94.31,94.275,94.17,94.0,93.995,93.995,93.985,93.89,93.85,93.94
2019-04-04,,,93.705,93.93,94.11,94.315,94.27,,94.27,94.37,94.33,94.31,94.2,,94.16,,,93.77,93.89,93.6,93.61,93.84,93.89,93.975,93.87,,,93.635,93.635,93.65,93.58,93.66,93.58,93.62,93.545,93.52,93.545,93.56,93.555,93.515,93.46,93.46,93.54,93.54,93.49,,93.46,,,,93.53,93.625,93.675,93.63,93.65,93.59,93.565,,,,,,93.25,93.23,93.2,93.03,,93.09,93.07,,92.97,92.95,92.97,93.005,93.0,93.265,93.285,,93.26,93.3,,93.27,93.25,93.19,,93.165,,,93.07,93.09,93.06,93.025,93.13,93.13,93.185,93.16,93.28,93.27,93.27,93.195,93.23,93.37,93.37,93.33,93.41,93.37,93.275,93.205,93.22,93.17,92.97,93.035,93.015,,93.145,93.31,93.315,93.33,93.38,93.34,93.325,93.23,93.205,93.31,,93.31,93.48,93.6,,93.695,93.58,93.6,93.67,93.67,93.57,93.71,93.71,93.765,93.71,93.765,93.7,,93.735,93.7,93.7,93.71,93.7,93.67,93.7,93.775,93.785,93.735,93.71,93.72,93.72,93.7,93.72,93.705,,,93.615,93.54,93.53,,93.42,93.33,93.29,93.21,93.2,93.37,93.39,93.46,,93.63,93.58,93.49,93.47,93.525,93.53,,,93.57,,93.46,93.41,93.56,93.53,93.49,93.49,93.46,93.49,93.46,93.43,,93.57,,,93.49,,93.57,93.59,93.59,,93.69,93.65,93.715,93.68,93.66,,93.59,,,93.55,,93.4,93.51,,,,,93.49,,,,,,,93.475,93.56,93.6,93.58,93.55,,93.56,93.59,,,93.55,93.56,93.54,93.58,93.655,,,93.63,,93.69,93.69,93.64,,,,93.59,93.585,93.6,,,93.67,93.53,93.49,93.46,93.6,93.59,93.65,93.745,93.68,93.605,93.755,93.645,93.625,93.59,93.6,93.61,93.595,93.6,,93.645,93.66,93.64,93.77,93.695,93.64,93.65,93.675,93.67,93.67,93.7,93.66,93.65,93.675,93.655,,93.65,93.63,,93.485,,93.58,93.46,93.5,93.48,93.54,93.6,93.655,93.64,93.69,93.72,,,93.655,93.66,93.645,93.56,93.545,93.505,,93.51,93.43,93.4,,,,93.33,93.385,,93.405,93.405,93.41,,,93.47,93.43,,,,93.4,93.45,93.42,93.315,93.38,93.38,,,,93.43,,,,93.51,93.51,,,93.425,,,,93.465,93.41,93.4,93.4,93.42,93.4,93.43,93.47,93.5,93.5,93.51,93.55,93.545,93.51,93.555,93.545,93.475,,93.48,93.54,93.63,93.64,93.63,93.54,93.64,93.62,93.58,93.67,93.56,93.61,93.61,93.62,93.59,93.68
2019-04-05,,94.43,,94.63,,94.46,94.635,94.67,94.63,94.585,94.55,,94.69,94.65,94.64,,,95.05,,95.295,95.41,,95.345,95.265,95.35,95.21,95.275,95.37,95.39,95.53,95.6,,95.71,95.685,,95.95,96.05,96.1,96.19,96.25,96.15,96.23,96.265,,,96.36,96.345,96.36,96.46,96.41,,96.55,96.58,96.56,96.535,96.61,96.63,96.465,96.38,96.44,96.4,96.485,96.69,96.59,96.6,96.57,96.615,96.67,96.62,96.61,96.57,,96.58,96.64,96.67,96.71,96.765,96.84,96.905,96.85,96.9,96.925,97.045,97.05,97.07,97.1,97.115,96.99,97.095,97.03,96.975,97.07,97.12,97.035,,96.92,97.01,,97.19,97.175,97.15,97.23,97.27,97.45,97.42,97.42,97.46,,97.43,97.43,97.7,97.63,97.59,97.55,97.53,97.33,97.225,97.065,97.12,97.09,97.04,96.92,96.91,96.86,96.78,96.82,96.96,96.97,96.93,96.85,96.975,97.015,,,,,,,,97.08,,,97.09,,,97.25,97.215,,,,,97.19,,,97.105,97.085,97.05,,97.11,97.11,,97.15,97.17,97.18,97.15,,,,97.23,97.18,97.27,97.26,97.16,97.2,,97.31,97.33,,97.35,97.37,,,,,,,,97.26,97.2,97.17,97.19,97.18,,97.21,97.27,,97.445,,97.42,97.39,,,97.57,,97.62,97.61,97.71,97.76,97.75,97.8,97.78,,97.85,97.88,97.89,97.91,97.87,97.94,98.06,98.05,98.08,98.04,98.03,98.01,98.06,98.03,98.015,98.06,98.08,98.1,98.09,98.19,98.21,98.25,98.23,98.17,,98.21,98.21,98.19,98.22,98.2,98.06,,,,,,98.26,98.35,98.31,98.29,98.25,98.24,98.23,98.17,,98.16,98.2,98.225,98.22,98.25,98.27,98.225,98.26,98.22,98.265,98.29,,98.4,,98.43,98.4,98.35,98.47,98.5,98.51,98.3,98.28,98.26,98.24,98.2,98.29,98.32,,98.43,98.5,,98.5,,98.36,98.25,,,98.29,98.25,98.23,98.24,98.385,98.42,,98.39,98.33,98.3,98.33,98.305,98.24,98.25,98.26,98.355,98.35,,98.435,98.41,98.36,,98.25,98.23,,98.19,98.19,98.2,,98.15,98.155,98.165,98.18,98.28,98.32,98.345,98.37,98.405,,,98.52,98.62,98.41,98.39,,98.34,98.395,98.39,98.43,98.44,98.45,98.4,,98.41,98.45,98.41,98.43,98.56,98.48,,98.41,98.4,98.4,98.435,98.47,98.44,98.44,98.54,98.51,98.59,98.53,98.485,98.42,98.45,98.45,98.46,98.535,98.52,98.49,98.4,98.43,98.41,98.53,98.5,98.47,98.43,98.42,98.42,98.45,98.43,98.53,98.59,98.64,98.66,98.64,98.66
2019-04-08,99.225,99.49,99.81,99.91,99.96,99.755,99.85,99.69,99.555,99.54,99.99,100.18,100.41,100.4,100.2,100.43,100.82,100.78,100.9,100.785,100.83,100.81,100.75,100.76,,100.61,100.195,100.31,100.13,100.23,100.195,100.08,100.06,100.09,99.985,99.88,100.15,100.05,100.015,100.01,100.05,100.0,,100.02,,100.15,100.17,100.4,100.485,100.53,100.46,100.3,,,100.47,100.43,100.29,100.42,100.36,100.27,100.145,100.165,100.06,100.16,100.135,100.16,100.26,100.27,100.27,100.32,100.33,100.37,100.34,100.265,100.21,,100.07,100.11,,100.075,100.26,100.21,,,,100.29,100.17,100.17,100.16,100.15,100.19,100.12,100.0,,99.99,100.0,99.94,100.0,,,99.92,99.93,99.79,99.79,99.6,99.56,,99.36,,99.29,99.15,99.16,99.21,,99.21,99.23,99.17,,99.24,,99.39,,,99.59,,,,99.375,99.48,99.41,99.405,99.35,99.37,,99.4,99.41,,99.48,99.48,99.545,99.47,,99.39,99.48,,,99.415,,,,99.36,,,,,,99.35,99.255,99.17,99.2,99.205,,,,99.12,,99.23,,99.39,99.405,99.31,,,99.34,99.355,99.415,99.45,99.44,,99.415,99.35,99.35,99.2,99.255,99.105,99.235,99.22,99.27,,,99.43,99.47,99.46,99.44,99.53,99.54,99.57,99.53,,99.405,99.47,99.49,99.51,,99.51,,99.61,99.63,,99.59,,,99.425,99.47,99.44,99.41,99.42,99.45,99.45,99.46,99.48,,,99.46,,99.36,,,,99.39,,,,99.43,,,,,99.4,99.36,99.29,99.3,99.41,99.36,99.37,,99.29,,99.415,99.415,99.475,99.46,99.41,99.465,99.425,99.49,99.49,99.505,99.505,99.5,99.5,99.52,99.41,,99.54,,99.455,99.44,99.48,,,99.45,99.38,99.435,99.48,99.485,99.315,99.29,99.35,99.35,99.36,,,,,,,,,99.34,,99.295,99.29,99.245,,,99.285,99.27,99.33,99.26,99.285,99.25,99.27,99.32,99.4,99.35,,,,,,99.25,,,99.24,99.31,99.27,99.26,,99.275,99.31,,99.37,99.415,,,99.42,99.44,99.42,,99.34,,99.315,99.32,99.32,,,,99.24,,,,,99.395,,99.25,99.32,,99.37,,99.48,99.465,99.47,99.465,99.38,,99.405,,99.405,99.36,99.35,,,,99.34,99.375,99.44,99.47,99.495,,99.38,99.405,99.41,,99.36,99.41,,99.35,99.41,99.35,99.385,99.42,99.345,,99.36,99.31,99.29,99.24,99.36,99.45
2019-04-09,,98.63,,,97.99,97.875,97.555,97.635,,97.85,97.93,97.86,,97.88,97.94,97.92,,98.13,98.14,,,,,98.17,,98.28,98.21,98.32,98.27,98.13,98.15,98.15,,97.76,97.685,97.745,97.825,,97.71,,97.715,97.775,97.76,97.735,97.61,97.77,,97.625,,97.63,97.59,97.6,,97.63,97.79,97.96,98.04,98.01,98.04,98.05,97.97,97.87,97.78,,,,,,98.08,97.84,,97.78,,,97.62,97.685,,97.68,97.65,,,97.53,,,,,97.59,97.51,97.59,,97.73,,,97.71,97.76,,,,97.78,,97.645,97.59,97.53,97.525,97.59,97.65,97.74,97.77,97.7,97.59,97.62,97.72,97.7,97.7,97.6,97.625,,97.72,97.74,97.74,97.71,98.04,98.1,,98.0,98.03,,98.07,98.02,98.12,,98.115,98.17,,98.21,98.25,98.33,98.34,98.33,,98.45,98.55,98.54,98.59,98.72,98.68,,98.655,98.665,98.65,98.725,98.82,98.78,98.81,98.85,98.86,,,98.97,99.02,,99.01,99.02,,99.14,99.17,99.17,,99.23,99.23,99.25,99.23,99.27,99.21,99.29,,99.32,99.33,,,99.36,,99.35,99.39,99.375,99.4,99.325,,,99.37,99.41,,99.44,99.565,99.5,99.5,99.515,99.44,99.39,99.36,99.3,99.25,99.2,99.14,99.09,99.08,99.1,,,98.96,,98.99,,98.99,98.97,98.935,98.92,98.98,99.03,,99.0,99.08,98.995,98.99,98.99,98.99,98.95,98.995,98.95,98.92,98.91,,98.9,98.84,,,98.83,98.82,98.84,,98.78,,98.67,98.66,98.66,98.645,98.66,98.69,98.81,98.85,98.865,98.93,98.93,98.91,,,,,,,98.87,98.89,,98.86,98.84,98.8,,98.89,,,98.85,98.845,98.81,,98.81,,98.79,,,98.7,,98.61,98.65,98.57,,98.73,,98.725,98.71,98.72,98.73,98.72,98.72,,98.69,98.67,98.7,98.77,98.785,,98.745,98.755,98.72,98.72,98.695,98.68,98.675,98.64,98.71,98.67,98.69,98.645,98.6,98.645,98.595,98.52,98.51,98.43,98.45,98.465,98.53,98.515,98.435,98.59,98.53,,98.5,98.47,98.35,98.385,98.49,98.54,98.495,98.495,98.55,98.54,98.48,98.46,98.52,98.495,98.53,98.495,98.53,98.56,98.535,98.55,98.51,98.5,98.43,98.435,98.3,98.32,98.35,98.34,,98.33,98.27,98.25,98.41,98.405,98.41,98.455,98.48,98.49,98.51,98.565,98.545,98.52,98.5,98.575,98.575,98.62,98.605,98.61,98.6,98.61,,98.7,98.68,98.69,98.66,98.68,98.63,98.685,98.59,98.51,98.51,98.46,98.53,98.61
2019-04-10,,,99.03,99.535,99.7,,,,,,99.47,,,99.67,99.49,99.63,99.715,99.78,99.735,99.78,99.71,99.575,99.535,99.59,99.535,99.53,99.39,99.45,99.51,99.34,99.43,99.38,99.425,99.4,99.22,99.29,99.365,99.195,99.095,99.15,99.15,99.205,99.24,99.23,99.05,99.17,99.06,,99.06,99.13,99.17,99.055,,,98.965,98.95,98.95,,98.89,,,99.06,98.98,98.94,,99.0,99.0,,98.83,98.81,98.815,99.01,99.1,98.96,,98.84,98.79,98.845,98.865,98.77,98.8,98.76,98.77,,98.785,98.83,98.94,98.83,,98.87,,98.91,98.88,98.975,98.96,98.94,99.04,98.98,99.01,98.99,98.935,98.95,,98.8,98.825,98.915,98.93,98.83,98.78,,98.8,98.85,98.82,98.78,98.9,98.96,98.905,98.865,98.8,98.865,98.905,98.955,98.93,99.0,99.05,98.975,98.945,,98.85,98.79,98.83,98.77,98.83,98.85,,98.87,98.94,98.94,,98.88,98.855,98.875,98.835,98.9,99.01,99.01,99.02,99.025,,99.1,99.14,99.16,99.17,99.21,99.17,99.24,99.25,99.41,99.395,,,,99.45,99.335,99.19,99.21,99.28,,99.395,,99.55,99.52,99.52,99.58,99.53,99.54,,99.45,99.42,99.34,99.305,99.28,,99.305,99.3,,99.32,,,99.41,99.405,99.35,99.36,99.37,99.34,99.33,99.33,99.27,99.25,99.26,99.24,99.25,99.27,99.245,,99.25,,99.18,99.22,,99.19,99.17,99.16,99.14,99.12,99.175,,99.12,99.115,99.15,99.22,,99.16,99.09,99.2,99.17,99.1,99.08,99.165,99.15,99.18,99.13,99.045,,99.14,,99.08,99.055,98.93,,,,,98.94,98.96,98.98,,,,,,,,,98.97,98.935,98.935,,,98.94,98.955,98.91,,98.87,98.86,98.82,98.835,98.84,98.82,98.815,98.86,,98.86,,98.75,98.79,,,98.78,,98.75,,,98.645,98.61,98.65,98.605,98.63,98.6,98.47,98.65,,98.525,,98.5,98.53,98.51,98.5,,98.55,,98.51,98.5,98.415,98.485,,98.56,98.62,98.6,98.68,,98.715,,,98.7,,,98.73,98.75,98.74,98.74,,98.7,98.69,,98.755,,,98.72,98.71,98.71,98.87,98.93,98.9,98.995,98.965,98.985,98.95,98.95,98.975,98.865,98.85,,98.85,98.85,98.85,,98.79,,98.72,,98.62,98.695,98.69,98.69,98.68,,98.775,98.83,98.83,98.85,,98.86,98.86,,98.79,98.77,98.795,98.735,98.71,98.725,98.715,98.675,98.64,98.605,98.62,98.595,98.58,98.58,98.58,98.59,98.535,98.49,98.475,98.43,98.48,98.58,98.62,98.65,98.765
2019-04-11,98.64,,,,97.9,98.07,98.09,98.04,,98.105,,,97.94,,98.27,98.3,98.95,98.89,98.915,,98.97,,99.05,99.05,98.98,98.91,98.9,,98.95,99.12,99.16,,,,99.24,99.33,99.19,99.205,,99.15,99.15,99.15,,99.25,99.27,99.43,99.41,,99.525,99.52,,99.73,99.64,99.67,99.65,99.61,99.66,99.45,,,,99.44,99.41,99.45,99.47,,99.37,,,99.54,,99.58,99.45,99.44,99.41,99.5,99.49,,99.34,99.23,99.29,99.27,,99.25,99.23,,99.025,99.07,,98.96,98.865,98.905,,98.69,98.7,98.59,98.595,98.735,98.81,,98.75,98.77,98.86,98.985,99.05,99.14,99.12,,,,98.77,98.74,98.68,,98.6,98.64,98.635,98.61,98.55,98.62,98.545,98.51,98.575,98.53,,98.55,98.39,,98.45,98.44,97.98,98.06,98.02,98.07,98.135,98.19,,,98.24,,,98.1,98.05,97.96,97.97,,98.135,98.165,98.115,,97.93,,,98.0,,98.005,98.07,98.155,98.05,,98.07,98.02,98.08,98.1,98.17,,98.08,98.025,,98.09,,98.03,98.04,,98.11,98.09,97.98,97.8,97.71,97.7,97.755,97.785,,97.795,97.75,97.67,,97.855,,97.915,97.86,97.67,,97.83,,,,,98.11,98.07,,98.23,98.32,98.27,98.31,98.405,,,,,98.45,98.5,,98.5,,98.46,98.5,,,98.575,98.5,,98.46,98.44,,,,98.485,98.5,,98.62,,98.78,98.9,98.92,98.83,,98.52,98.62,98.785,98.7,,98.65,,98.78,98.81,98.7,98.64,,,,,98.56,98.545,,98.585,98.64,,98.84,98.91,98.89,98.89,,,,98.89,,98.855,98.88,98.87,,,,98.845,,,,98.865,,,,,,98.98,,,99.01,,99.025,,,98.895,98.81,98.8,,,,,98.9,,,,98.91,98.87,98.87,,,,,,98.73,,,,,,98.825,,98.845,98.85,98.81,,,98.88,,98.735,98.69,,,,98.66,,98.725,98.73,,98.91,,,,98.85,,98.83,,98.82,,,98.91,98.96,98.91,,,,,,,98.81,98.78,,,,98.77,,,,,,98.79,98.78,98.79,98.78,,,98.75,98.75,98.71,98.72,98.73,98.68,98.75,98.79,98.83,98.82,98.825,98.85,98.96,98.93,98.93,98.91,98.94,98.75
2019-04-12,102.935,102.35,103.02,103.03,103.13,103.165,102.88,103.03,103.175,,,103.725,103.74,103.845,103.75,103.88,103.74,103.75,103.555,103.58,103.58,103.58,,103.71,103.74,103.81,103.82,103.58,103.42,103.39,103.19,103.12,102.83,102.95,102.9,102.92,102.74,102.71,102.69,102.89,102.975,,102.96,102.87,102.9,102.88,102.88,,102.76,102.75,102.76,102.905,103.13,103.29,103.35,103.37,103.41,103.415,,103.38,103.16,103.3,103.3,103.125,103.11,103.04,102.94,103.01,103.12,,102.73,102.68,102.66,102.64,102.72,102.805,102.91,102.77,102.685,102.75,102.83,102.84,,102.925,,103.03,102.88,102.97,,102.94,,103.015,102.9,103.06,103.01,,102.78,102.795,102.82,102.9,,,,,102.89,,,102.85,102.83,,102.805,102.84,102.89,102.875,102.95,102.88,,102.95,102.92,102.94,102.9,102.89,102.87,102.9,,,,102.92,,103.0,102.925,,,102.92,103.0,,,102.94,,102.865,,103.07,103.1,103.3,103.25,103.3,103.3,,,103.39,103.35,,103.35,103.295,103.295,103.375,103.26,103.31,103.4,103.41,103.4,103.33,103.32,103.32,,103.29,103.355,103.4,103.43,103.445,,103.435,103.34,103.27,103.22,,103.29,103.25,103.29,103.34,,103.49,103.455,,,,103.34,103.39,103.45,103.52,103.59,103.74,103.74,103.815,103.925,103.97,103.94,103.94,103.99,,103.99,104.06,104.04,104.115,104.22,104.3,104.31,104.45,104.46,,104.625,104.735,104.725,104.735,104.79,,104.72,104.72,104.6,104.705,104.775,104.76,104.595,104.745,104.665,104.64,104.7,104.74,104.745,104.775,104.75,104.75,104.75,104.755,104.845,104.835,104.955,105.01,104.98,105.0,105.0,105.08,105.1,104.985,105.055,105.1,105.2,105.25,105.25,105.33,105.445,105.49,105.51,105.5,105.545,105.575,105.27,105.18,105.15,105.27,105.38,105.31,105.42,105.32,,105.46,105.45,105.41,105.53,105.585,105.55,105.61,105.68,105.73,105.72,105.78,105.72,105.69,105.73,105.73,105.67,105.77,105.77,105.75,105.815,105.88,106.01,106.08,106.0,105.91,105.9,105.615,105.725,105.7,105.71,105.58,105.57,105.46,105.49,105.62,105.93,105.98,,105.77,105.83,105.87,105.82,105.67,105.68,105.55,105.515,105.38,105.36,105.22,105.165,105.125,105.17,105.12,105.19,105.17,105.11,105.34,105.0,105.135,105.1,105.29,105.16,105.175,105.23,105.33,105.31,105.6,105.59,,105.77,105.77,105.835,105.79,105.895,106.0,106.03,106.01,106.125,106.28,106.29,,106.295,,106.24,106.04,106.07,105.76,105.84,105.98,105.61,,105.525,105.585,105.6,105.765,105.62,105.59,105.63,105.67,105.65,105.63,,105.535,105.455,105.52,105.49,105.505,105.5,105.46,105.43,105.4,105.37,105.4,105.325,105.38,105.3,105.31,105.28,105.22,105.26,105.32,105.445,105.39,105.33,105.33
2019-04-15,,,104.02,103.88,103.67,103.49,103.38,103.43,103.385,103.765,,103.52,,102.87,102.92,102.86,102.855,102.81,102.85,102.98,102.965,102.93,102.985,102.81,103.03,103.09,103.09,103.41,103.52,103.4,103.47,103.75,103.71,103.78,103.625,103.66,103.735,103.6,103.8,103.64,103.57,,103.52,103.48,,103.45,103.555,103.505,103.32,103.45,103.33,103.235,103.435,103.27,103.305,103.31,103.22,103.285,103.19,103.15,102.83,102.93,102.82,102.765,102.85,102.705,102.705,102.83,102.655,102.69,102.6,102.595,102.64,102.5,,,102.48,102.39,102.34,102.44,102.56,102.56,102.59,102.58,102.54,102.615,102.62,102.57,102.555,102.6,102.65,102.47,102.39,102.305,,102.245,102.22,102.315,102.33,102.41,,,102.49,102.45,102.52,102.5,102.31,102.225,102.105,102.01,102.15,102.06,102.055,,102.12,101.985,,101.985,101.95,102.12,,,,102.27,102.29,,,102.32,102.37,,102.41,102.61,,102.415,102.46,102.435,,102.49,102.38,102.3,102.32,102.205,102.37,102.39,102.34,102.21,102.35,102.34,102.385,102.29,102.135,,102.125,102.14,102.15,102.22,102.37,102.24,102.27,102.33,,102.225,102.23,102.15,102.195,102.215,102.17,102.25,102.11,102.14,102.2,,,,102.15,102.15,102.1,102.115,102.1,,102.11,,102.05,,,,,,102.07,,102.165,102.13,102.21,,,102.045,102.12,,102.12,102.15,102.205,102.13,102.125,102.11,,,102.18,,102.19,,102.27,,102.25,102.34,,102.29,102.3,102.27,102.25,,102.15,,,102.13,102.1,,,102.06,102.03,102.09,102.085,102.155,102.17,,,102.25,102.25,102.27,,102.345,,102.41,102.34,102.35,102.3,102.32,102.33,102.37,102.41,102.41,102.37,102.43,102.46,,102.4,102.41,102.46,,,,102.465,,102.41,102.44,,,102.415,102.335,,102.38,102.48,102.5,,102.52,,,102.435,102.455,,102.41,102.45,102.405,,102.46,102.44,,102.48,102.49,,102.48,102.47,102.43,102.32,,102.305,,,,,102.22,102.23,102.08,102.05,,,,,101.85,101.82,101.85,101.68,101.61,101.5,101.5,101.5,101.48,,,101.53,101.5,101.475,101.62,101.63,101.7,101.7,101.71,,101.75,,101.705,,101.71,101.71,101.76,101.7,,101.75,,101.72,101.68,101.795,,,101.66,,,101.74,101.66,101.675,,101.71,,101.68,,101.66,101.71,101.69,,101.7,101.67,101.73,101.69,101.695,101.77,101.75,101.73,101.745,101.76,101.8,101.79,101.78,101.81,101.74,101.73,101.68,101.625,101.705,101.8,101.905,101.945,101.9,101.91,101.92,101.95,101.95,101.97,101.905,101.975,101.885,102.03
2019-04-16,,101.97,101.9,101.86,101.845,101.81,101.67,101.56,101.465,101.47,101.57,101.28,101.25,101.35,101.45,101.42,101.655,101.69,,101.39,101.225,,,101.21,101.37,101.37,101.325,,101.31,101.29,101.35,101.37,101.43,101.47,101.46,101.44,101.385,101.4,101.45,101.44,101.38,101.495,101.78,101.66,,101.54,101.59,101.53,101.54,101.52,101.66,101.66,101.71,,101.69,101.7,101.675,101.89,101.87,102.085,102.1,102.04,101.95,101.92,101.9,101.925,101.99,102.02,102.0,101.96,101.985,101.985,102.02,101.995,101.925,101.905,101.94,101.905,101.88,,101.79,101.77,,101.96,101.94,101.865,101.87,,101.83,101.62,101.645,101.55,101.56,,101.48,,101.41,,,101.45,101.49,101.72,101.65,,,101.88,,101.64,101.665,101.585,101.555,101.52,101.57,101.6,101.51,101.485,101.55,101.56,101.56,101.59,,101.485,,101.58,101.57,101.635,101.625,101.59,101.57,101.545,,101.59,,,,,101.68,101.65,101.71,,101.845,101.885,101.89,101.96,101.925,101.965,102.065,102.045,102.025,,102.0,102.06,101.985,102.085,102.1,102.135,102.17,102.15,102.17,102.1,102.08,102.1,102.11,,,102.14,102.165,102.14,102.175,102.19,,102.145,102.13,101.975,101.94,,102.01,101.98,,102.02,102.03,,102.075,102.135,102.18,102.185,102.19,102.16,,102.035,102.04,102.03,102.05,102.03,,102.1,102.14,102.14,,,102.1,102.07,102.08,101.92,101.99,,,,102.0,101.97,,,102.02,102.01,102.035,,102.09,,,,102.03,102.03,102.03,102.02,101.97,,,,102.005,102.03,102.05,102.085,,102.005,102.035,102.01,102.0,101.97,101.96,,,,,101.95,101.95,101.93,,101.89,101.9,101.94,101.95,101.965,,101.9,,101.87,101.95,101.95,101.98,102.01,,102.03,102.04,102.05,101.965,101.935,101.91,101.9,101.92,101.925,101.915,101.875,101.92,101.94,101.87,101.98,102.005,102.0,102.02,102.08,102.07,,102.135,102.16,102.15,102.235,102.27,102.3,102.315,102.48,102.475,102.485,102.585,,,102.635,102.725,102.77,,102.75,102.77,102.685,,,,,102.64,,,,102.73,,,,102.585,,,,102.53,102.52,,102.59,,,,102.55,102.57,102.55,,,,,102.5,102.49,102.46,102.435,102.46,102.43,102.44,102.51,102.5,102.51,102.465,102.48,102.495,102.495,102.475,102.445,102.4,102.34,102.375,102.36,102.35,102.41,102.43,102.43,102.43,102.415,102.475,102.49,102.505,102.525,102.63,102.555,102.495,102.415,102.47,102.43,102.38,102.34,102.315,102.37,102.33,102.36,102.29,102.37,102.35,102.29,102.35,102.29,102.295,102.245,102.3,102.355,102.335,102.34,102.375,102.37,102.36,102.36
2019-04-17,103.045,103.375,103.59,103.72,103.62,103.59,,,103.48,103.48,,,103.66,103.705,103.87,,,,,,,103.84,,,,,103.89,,103.89,,104.09,,104.03,104.11,104.39,104.42,104.21,104.28,,103.93,103.87,,103.65,103.755,103.78,103.68,,103.65,103.555,103.475,103.575,103.7,103.73,103.685,103.73,,103.775,103.81,103.73,103.83,103.81,103.83,,103.83,103.93,103.99,103.975,103.795,103.9,103.93,103.89,103.79,103.67,103.66,103.59,103.555,103.59,,103.57,103.61,103.5,103.5,103.48,103.48,103.47,103.58,103.45,103.43,,103.22,103.14,,,103.18,103.2,103.37,103.39,103.49,103.55,103.55,103.51,103.515,103.515,103.36,103.305,103.425,103.44,103.46,103.3,103.3,103.39,103.375,103.35,103.5,103.445,103.42,103.42,103.43,103.365,,103.26,103.28,103.2,103.21,103.115,103.2,103.31,103.29,103.24,103.19,,,103.14,103.23,103.18,103.17,103.14,103.1,103.09,103.205,103.19,103.0,,102.99,103.05,103.06,102.96,102.915,102.86,102.9,102.895,102.82,102.73,102.7,102.64,102.615,102.685,102.795,102.83,102.76,102.715,,,102.7,102.6,,102.585,102.66,102.745,102.77,102.78,102.715,102.62,102.64,102.58,102.58,102.65,102.645,102.67,102.69,102.69,102.72,102.735,102.66,102.68,,102.64,,102.59,,102.37,102.265,102.27,102.35,102.37,,,,102.42,102.5,102.57,102.55,102.54,,,102.57,102.59,102.55,102.45,,,102.44,102.39,,102.44,,102.5,,102.41,,102.46,,102.42,102.375,102.385,,,102.55,,102.665,,102.595,102.76,102.7,102.67,102.68,,102.725,,102.855,,102.84,102.83,102.75,,102.78,102.81,102.81,,102.8,102.8,,102.84,102.8,102.81,102.74,102.685,102.63,,102.61,102.51,,102.48,,,102.54,102.57,102.59,102.56,102.57,,102.57,,102.47,,,102.54,,102.54,,102.44,102.385,,102.345,,102.29,102.32,,102.32,102.335,102.285,102.25,102.21,102.2,102.1,,101.99,102.11,102.11,,102.05,,102.06,102.08,102.0,101.98,,101.87,,101.78,101.78,101.71,101.82,101.765,101.78,,,101.8,101.77,101.76,101.78,101.83,,,,101.745,101.74,,101.69,101.645,101.71,101.7,,101.79,,101.76,101.72,,101.71,101.68,101.575,101.59,101.56,101.58,101.61,101.54,101.48,101.45,101.525,,101.58,101.58,101.67,,101.595,101.6,,101.53,,,101.73,101.67,101.66,101.65,101.65,101.64,101.67,101.73,,101.78,,101.91,101.89,101.86,101.855,101.95,101.835,101.85,101.93,101.99,102.01,102.005,,101.85,101.87,101.81,101.8,101.84,101.82,101.83
2019-04-18,,,,,,102.07,101.585,101.73,,101.69,101.965,101.945,102.13,102.12,102.15,102.065,102.02,102.07,102.12,102.2,102.285,102.17,102.185,102.22,,102.045,102.13,102.18,102.26,102.33,102.325,102.2,,102.125,,102.24,102.24,102.34,,102.35,102.43,102.41,,102.41,102.475,102.5,102.53,,,,,102.42,,102.52,,102.51,102.49,102.54,,102.62,102.705,,102.72,102.72,102.67,102.69,,102.69,,,102.74,,,102.68,102.745,,,,102.91,102.97,102.955,102.88,,,102.88,102.95,102.975,,103.055,103.12,,103.18,103.19,,103.08,,,,103.15,103.195,103.265,103.17,103.24,103.2,103.08,103.075,102.95,102.98,103.06,103.08,,,,,,,103.23,,103.26,,103.48,103.505,,103.645,103.6,,,,103.715,,,103.76,103.74,,103.7,,,103.66,103.62,103.57,103.57,103.585,,103.51,,,,,,,103.725,103.9,,,,104.01,,,,,,,,103.93,103.88,,103.77,,103.74,,,103.77,,,,103.79,,,103.845,103.83,,103.81,,103.79,103.84,,,103.74,103.655,103.685,,103.69,103.67,,,,103.83,103.91,103.9,,,,,104.07,,,,,,104.045,,104.08,,,,,104.24,104.17,,,,104.18,,,,104.2,,104.19,104.17,,104.2,,,,,,104.24,,,,104.15,,,104.22,,,,104.21,104.215,104.25,,,,,,104.15,,,104.04,,104.055,104.1,,104.035,104.02,,,,,104.045,,104.17,104.16,,,,103.915,,103.89,,,103.77,,,,,103.75,,,103.75,103.74,,,103.81,,103.76,103.725,,103.82,,,103.83,,103.85,,103.99,103.96,,103.925,,103.91,103.89,,,103.93,,104.01,,103.91,103.915,103.83,103.75,,103.63,103.65,,,,103.7,,,103.64,,,103.47,,,103.44,,103.69,103.66,103.695,,103.78,,103.885,103.83,103.93,103.855,103.84,,103.98,104.04,104.08,104.025,104.1,,,104.03,104.16,104.115,104.07,104.05,104.05,104.1,104.16,104.115,104.03,104.07,104.1,104.1,,104.085,104.13,104.22,104.14,104.19,104.26,104.26,,104.18,104.15,104.06,104.03,104.04,103.95,103.96,103.92,103.86,103.86
2019-04-22,105.27,105.61,105.42,105.42,,105.69,105.635,105.545,105.73,105.875,105.695,105.63,,105.49,105.32,,105.33,,105.22,105.11,104.92,,104.81,104.785,104.89,104.87,104.9,104.92,,104.835,104.83,104.93,,104.925,105.055,105.03,105.25,105.24,105.21,105.23,105.28,105.295,105.04,105.095,105.17,105.075,105.1,105.125,105.15,105.2,105.28,105.35,105.38,105.38,105.31,105.38,105.58,105.69,105.77,105.815,105.84,105.79,105.73,105.705,105.485,105.34,105.455,105.44,105.49,105.38,105.22,105.2,105.31,,,,,,105.5,,105.67,,105.765,105.86,,105.81,,105.85,105.76,105.765,,,105.52,105.485,,105.34,105.33,,,105.56,105.6,105.68,105.74,105.73,,105.7,,105.62,,105.7,105.705,,105.62,,105.72,105.74,,,105.68,105.735,105.81,105.86,105.79,105.75,105.795,105.89,105.875,105.935,105.92,105.87,106.075,106.08,106.025,106.07,106.1,106.06,106.07,106.075,,,106.06,106.085,106.04,106.07,106.105,106.06,106.105,106.105,106.19,106.34,106.41,106.4,106.38,106.39,106.49,106.46,106.44,106.49,106.61,106.63,106.71,106.66,106.71,106.71,106.71,106.86,,106.81,106.85,106.83,106.77,106.67,106.65,,106.73,,106.69,106.69,106.76,106.79,106.81,106.86,106.895,106.9,106.94,106.905,,,107.03,106.995,,,,,107.04,107.02,107.01,107.05,,107.06,,107.115,,107.04,,106.95,106.83,,,106.93,106.91,106.96,107.01,107.11,107.12,107.09,107.14,107.1,107.15,107.24,,107.105,,,106.98,107.01,107.11,107.13,107.145,107.04,,,,107.02,107.01,107.03,107.07,107.095,107.1,107.1,107.055,,,107.1,107.1,106.99,,,107.11,,107.17,,,107.21,107.29,107.24,,,,,107.27,107.205,,107.24,,107.21,107.15,107.11,107.06,107.07,,,106.97,,,,106.935,106.95,,,,106.9,106.805,,,,106.79,,,106.78,,,106.67,,,,106.6,,106.68,106.64,,106.64,,,106.6,,106.5,,106.4,106.29,,106.35,,,106.57,106.545,,106.545,106.58,106.56,106.615,106.62,,106.735,106.745,106.745,106.75,106.67,106.77,106.725,106.74,106.8,106.785,106.79,106.735,106.675,106.725,106.755,106.76,106.73,106.715,106.65,,,106.62,106.62,106.64,106.63,106.66,106.68,106.66,106.63,,106.72,,106.705,106.715,106.695,,106.775,,106.8,106.86,106.83,106.885,106.895,106.895,106.825,106.86,106.88,106.89,106.86,106.87,106.87,,106.875,106.88,106.875,106.89,106.91,106.98,106.965,106.96,107.02,107.01,106.94,106.86,106.79,106.87,107.06
2019-04-23,106.995,106.71,,107.0,,107.165,107.46,107.485,107.2,,106.83,,,106.855,,106.98,107.04,107.01,,106.895,106.755,106.45,106.43,106.24,106.18,106.21,105.84,105.82,106.17,106.14,106.11,106.07,,106.13,106.1,106.13,106.085,106.04,,106.06,,106.02,,105.93,105.855,105.7,105.705,105.655,105.615,,105.505,105.595,,,106.0,106.01,106.0,,,106.18,106.14,106.225,106.25,,106.4,106.31,106.4,,106.39,,106.44,106.59,106.58,106.615,,106.635,106.625,106.59,106.59,106.53,106.565,106.555,106.55,106.735,106.74,106.72,,,106.85,,106.89,,107.01,,107.17,,,107.03,,107.06,107.19,107.2,107.22,,107.25,107.38,,107.22,,,,107.19,,106.95,106.93,,,106.85,106.83,106.83,106.8,106.92,106.85,,,106.66,106.655,106.59,106.68,106.805,106.74,106.71,106.73,106.63,,106.72,106.73,106.715,106.63,106.56,106.67,106.82,106.83,106.95,106.965,107.085,107.05,106.98,107.05,107.06,107.115,107.05,107.075,,107.05,107.19,107.26,107.36,107.41,107.33,107.395,107.315,107.39,107.48,107.51,107.595,107.51,,107.36,107.355,107.37,107.28,107.345,,107.34,107.355,107.48,107.51,107.505,107.395,,107.4,107.375,107.39,107.265,,107.34,107.47,107.595,107.595,107.57,107.62,107.4,107.45,107.5,107.53,107.595,107.66,107.5,107.57,107.59,107.69,107.71,107.685,107.72,107.64,107.735,107.79,107.74,107.665,107.65,107.6,107.655,107.715,107.68,107.64,107.625,107.605,107.575,107.55,107.51,107.48,107.54,107.52,107.59,107.56,107.56,107.57,107.59,107.65,107.62,107.6,107.59,107.47,107.36,107.31,107.2,107.355,107.34,107.325,107.34,107.25,,,107.33,107.36,107.39,107.405,107.4,107.43,107.4,107.405,107.37,107.38,107.46,107.425,107.415,107.405,107.43,107.45,107.5,107.53,107.5,107.5,107.49,107.54,107.51,,107.545,107.52,107.56,107.56,107.58,107.59,107.59,107.67,107.685,107.7,107.7,107.685,107.78,107.81,107.8,107.84,107.815,107.745,107.765,107.81,107.85,107.82,107.8,107.745,107.79,107.58,107.405,107.49,107.42,107.495,107.48,,,107.34,107.315,107.31,107.29,107.29,107.23,107.26,107.25,107.24,107.235,107.23,107.2,,107.25,107.25,,107.23,107.205,107.19,,107.1,107.095,107.04,107.045,107.01,107.06,107.115,107.14,107.115,106.96,106.915,106.81,106.8,106.8,106.83,106.79,,106.845,106.74,106.82,106.9,106.85,106.825,106.925,107.01,106.92,106.94,106.92,106.84,106.91,106.89,106.88,106.935,106.95,106.925,106.97,106.92,106.905,106.87,106.97,106.89,106.97,106.925,106.925,106.945,106.94,106.99,106.98,106.96,106.945,106.945,106.96,106.92,106.94,106.83,106.795,106.725,106.83,106.86,106.87,106.905,106.885,106.885,106.865,106.835,106.85,106.85,106.785,106.65
2019-04-24,107.34,,107.005,,107.11,107.305,107.07,107.03,106.81,106.48,106.18,106.19,106.32,106.32,106.05,105.94,105.91,105.97,106.045,106.0,105.95,105.97,106.16,106.16,106.15,106.155,106.055,105.89,,,,,,105.325,105.21,105.12,105.09,104.93,104.995,105.075,105.065,104.99,104.86,105.05,,105.17,105.295,105.31,,105.39,105.605,105.765,105.755,105.84,105.76,,,105.92,,,,,105.815,,105.94,,,,,105.96,,105.65,105.48,105.415,105.58,105.635,105.68,105.75,105.83,,105.73,,105.53,105.5,105.54,,105.54,105.5,105.505,105.5,105.5,105.5,105.5,105.525,105.51,105.53,105.53,,105.5,105.5,105.525,105.525,,105.54,105.54,105.51,105.515,105.505,105.505,105.5,105.5,105.5,105.51,105.51,,105.51,105.53,105.56,105.565,105.68,,105.63,105.635,,,105.69,105.71,105.55,105.56,105.58,,105.535,,105.68,,,105.67,,,105.5,,,,,,,105.58,,,,,105.665,105.63,105.585,105.58,,105.59,,,,105.58,105.53,105.56,,,105.56,,,,,,,105.49,105.65,105.67,,,,,,105.5,,,,,105.505,105.53,,105.5,105.48,,,,,,,105.535,,,,,,,,105.59,,105.59,,105.56,105.725,105.785,105.72,105.67,,,,,105.515,,105.52,,,,105.47,105.435,105.51,,,,105.48,,105.54,,105.51,,,,105.48,105.43,105.475,105.37,105.18,,,105.2,105.2,105.1,105.09,105.07,,105.0,105.06,105.02,105.015,105.035,,105.07,,,,,,,104.995,105.01,105.0,104.995,105.01,105.04,105.0,104.995,,105.12,105.145,105.12,105.23,105.22,,,105.28,105.28,105.31,105.27,105.15,105.15,105.165,105.26,,105.255,105.32,105.23,105.19,,105.225,,,105.2,105.21,105.22,105.21,105.22,105.235,105.23,105.22,,105.085,105.05,105.0,105.07,,,104.975,104.96,104.955,,104.995,,105.08,105.035,,105.04,105.08,105.16,,,,,105.08,105.06,105.06,,105.045,105.03,,104.975,104.98,,104.97,104.95,104.83,,104.74,104.74,104.745,104.725,104.7,,,104.745,104.75,104.73,104.75,104.755,104.745,104.75,,104.735,104.74,104.755,104.75,104.79,104.77,104.69,104.65,104.635,104.63,,104.59,104.52,104.47,104.385,104.39,104.43,104.5,104.58,104.56,104.52,104.46,104.42,104.45,104.39,104.29,104.24,104.185,104.27,104.18,104.075,104.015,103.93,103.9
2019-04-25,103.92,,,103.765,103.5,,,,103.96,103.92,103.72,,103.79,103.85,103.835,,,,,103.75,,104.03,,103.89,103.73,103.855,103.97,103.92,103.81,103.865,103.79,103.66,,,103.66,103.59,,,103.455,103.39,103.375,103.37,103.36,103.35,103.3,,,103.17,103.13,103.18,103.17,103.29,103.37,103.51,103.47,103.61,103.63,103.59,103.57,103.59,103.55,,103.34,,,,,,,,103.535,103.47,,103.4,103.45,,,103.54,103.625,103.67,103.705,103.71,103.67,103.71,103.61,103.5,103.34,103.34,,,103.27,103.24,,103.595,103.675,103.76,103.715,103.695,103.78,103.85,103.71,103.85,103.96,103.885,103.845,103.715,103.55,103.615,103.76,103.795,103.755,104.0,104.0,103.98,104.0,104.0,103.91,103.85,,103.865,103.845,103.71,,103.78,103.775,103.805,103.935,103.945,,104.02,104.0,,,,,103.89,,103.975,103.94,103.91,103.925,103.95,103.93,,103.975,103.99,103.98,104.02,104.04,104.04,104.02,,104.04,103.97,103.955,103.98,,103.865,,,103.935,103.91,,103.875,103.83,103.83,,103.78,103.79,103.83,103.75,103.78,,103.785,103.795,103.79,,,,103.62,103.655,103.645,103.69,103.62,,103.67,103.71,103.7,,,,,103.72,,103.63,103.71,103.655,103.66,103.71,,103.64,103.57,103.59,103.555,103.57,,,,,103.62,,103.66,,103.65,,103.59,103.57,103.64,103.61,,103.6,103.64,103.665,103.665,103.62,103.58,103.5,,103.56,103.57,,103.58,103.55,103.57,103.58,103.59,103.555,,103.63,103.645,103.61,103.6,,,103.65,,,,103.68,,,103.6,,103.62,103.55,,103.59,103.57,103.53,,,,,,103.33,,103.33,,103.29,103.26,103.2,,103.155,103.24,,,,,103.07,103.105,,103.055,103.005,,103.05,,102.98,,102.96,,,102.81,102.86,102.84,102.88,102.845,102.8,102.82,102.8,102.91,102.925,102.955,,103.03,,102.99,,102.91,102.91,,102.65,102.69,102.73,,102.69,102.705,102.73,102.85,102.845,102.855,102.93,102.9,102.89,102.88,,102.88,102.845,102.87,102.88,102.85,102.86,102.85,102.805,,102.765,,102.7,102.73,102.735,102.7,102.64,102.625,102.64,102.62,102.58,102.47,102.445,102.375,,,102.46,102.53,102.525,102.61,102.55,102.67,102.755,102.865,102.915,103.01,103.0,102.89,102.9,102.91,102.85,102.77,102.75,102.8,102.83,102.785,102.82,102.79,102.75,,102.82,102.85,102.81,102.82,102.62,102.61,102.575,102.55,102.56,102.595,102.555,102.46,102.245,102.18,102.08,102.11
2019-04-26,101.47,,,,101.69,101.35,101.16,101.03,100.87,,100.46,100.295,100.13,100.15,99.77,100.1,,100.2,,100.38,100.495,100.71,100.77,100.68,,,100.355,100.44,,,,,,100.25,,,100.09,99.81,99.72,,,99.53,99.47,99.465,99.44,99.635,99.54,99.49,,99.26,,99.04,99.13,,99.19,99.175,99.15,,98.925,,98.92,98.895,98.865,,98.93,98.89,,98.77,98.7,,,,98.54,98.53,98.45,98.53,,98.66,98.695,,,,98.415,98.5,98.31,98.22,97.995,97.79,97.81,97.83,97.73,97.75,,,97.7,97.73,,,97.53,,,,,,97.72,,97.94,97.92,,97.88,,,98.23,98.12,,98.015,97.99,98.06,98.12,98.29,98.205,98.07,98.03,98.0,97.95,97.915,,98.08,,98.225,98.195,98.21,98.18,98.17,98.14,,98.155,98.19,98.175,98.24,98.25,98.01,,,,97.92,97.86,97.67,,,97.85,,97.93,97.89,,97.94,97.895,97.85,,97.875,97.86,97.86,97.85,97.75,97.83,,,97.78,97.805,97.82,97.86,97.82,,,,,,,97.43,97.46,97.44,97.46,,,97.41,97.43,97.41,97.42,97.5,97.53,97.55,97.54,97.61,,97.61,97.65,97.68,97.59,97.62,,97.65,97.67,,97.57,97.56,97.55,97.54,97.51,,97.55,97.625,97.7,,,97.71,97.76,97.635,,,97.67,97.72,97.71,97.7,97.65,97.6,,,97.45,97.44,97.37,97.35,97.42,97.44,97.44,,97.475,97.44,97.37,,97.45,97.44,,97.5,97.48,97.51,,97.46,,97.42,,,97.36,,97.5,,97.51,97.48,97.43,,,,,97.39,,,97.49,,97.54,97.6,97.62,,,97.52,,97.44,97.42,97.415,97.4,97.31,97.33,97.24,,97.285,97.14,97.19,97.32,,,97.32,,,97.5,97.6,97.705,97.61,97.54,97.68,97.69,97.72,97.545,97.545,97.59,97.57,97.61,97.6,97.56,97.47,97.4,97.4,,97.49,97.43,,97.5,,97.39,,,,97.45,97.49,97.5,,97.53,,,97.47,97.51,97.56,97.47,97.46,,97.61,97.59,97.62,97.65,97.725,,97.695,97.615,97.595,97.58,97.45,97.41,,97.37,97.43,97.46,97.44,97.515,97.5,97.44,97.5,97.46,97.49,97.46,97.52,97.455,97.41,,,97.46,97.55,97.475,,97.545,97.68,97.66,97.73,97.67,97.735,97.715,97.675,97.605,97.635,97.64,97.615,97.54,97.585,97.64,97.65,97.64,97.65,97.705,97.78,97.84,97.95,98.1,98.13,98.11
2019-04-29,,,98.075,,,98.08,98.08,97.925,97.64,97.8,97.8,97.75,,98.095,,,97.97,98.07,98.01,97.92,97.87,97.84,97.615,97.67,97.54,97.51,97.55,97.35,97.31,97.17,,97.56,97.735,,,,97.83,97.75,97.55,97.5,,97.39,97.4,97.35,,97.14,96.9,97.11,97.095,97.16,,,97.15,97.12,,,96.955,96.93,,,96.89,96.97,97.07,,,,97.12,97.105,97.03,96.99,97.0,,97.03,,,97.035,,96.96,96.91,97.1,97.08,,96.98,96.915,96.92,97.01,96.91,96.87,96.84,96.99,96.84,96.95,96.88,96.96,96.95,96.96,96.87,96.89,,,96.94,,96.975,96.94,96.755,96.875,96.85,,96.89,96.86,96.89,96.935,,97.0,97.02,97.05,97.17,97.28,,,97.43,97.48,97.54,97.59,,,97.63,,97.71,97.63,,97.395,,97.37,97.325,,,97.38,,97.395,97.29,97.38,97.405,,97.35,,97.36,,97.45,97.46,,,,,97.62,,,,,,,,97.68,97.6,,,,,,,97.515,97.59,97.595,,,,,,,,97.575,,,97.42,,97.5,97.53,97.53,,,97.575,97.58,97.69,97.75,97.645,97.64,97.66,97.73,,,97.77,,97.705,97.7,97.67,,,,97.62,,,97.65,,,,,,,97.59,97.62,,97.67,97.65,97.62,,,,,,,97.55,,97.64,,,97.61,97.58,,,97.58,97.57,,,,,,97.52,97.505,97.48,,,,,,97.565,97.58,,97.56,,,97.7,97.675,,,,97.68,97.64,97.62,,,,,,,,,,,,,,,,,,,,,97.4,97.41,,97.5,,97.53,97.5,,,97.465,,97.52,97.45,,,97.52,,97.47,97.45,,97.39,,,97.31,97.3,97.33,97.29,97.34,,,97.335,97.285,97.24,,97.15,,97.09,,,97.035,,96.88,96.91,96.94,,97.05,,97.07,,,97.03,,97.07,97.05,,97.055,,97.1,,97.01,,97.0,,97.02,,97.01,96.89,96.91,,,96.91,,97.02,97.05,97.04,97.06,97.02,97.08,97.15,97.16,97.14,97.17,97.175,97.165,,97.155,97.175,97.135,97.16,97.185,97.205,97.19,97.185,97.12,97.145,97.135,97.125,97.15,,97.11,97.115,96.99
2019-04-30,98.09,98.21,,,97.74,97.49,97.58,97.51,97.43,97.56,97.35,,97.03,,97.14,,,96.93,96.905,97.03,96.86,,,96.91,,96.63,96.66,96.67,96.64,,96.55,96.485,96.58,,,96.39,96.4,96.4,96.315,96.315,,96.4,,,96.125,96.015,95.85,95.69,95.56,95.385,95.27,95.265,95.37,95.55,95.7,95.77,,95.885,,95.87,95.94,,96.05,96.21,96.225,,96.19,96.17,96.17,96.17,,96.15,,96.02,,95.89,95.84,95.64,95.505,95.57,95.75,95.77,95.82,95.85,,,96.08,96.03,96.145,96.175,96.13,96.065,96.08,95.845,95.75,95.715,95.655,95.51,95.4,95.46,95.475,95.46,95.365,95.31,95.41,95.62,95.56,95.47,95.47,95.56,95.65,95.61,95.67,95.74,95.91,95.91,95.92,95.81,95.91,95.9,96.0,96.03,95.88,95.89,95.98,,,96.04,96.14,96.15,96.13,95.97,95.86,95.85,95.79,95.62,95.46,95.495,95.75,95.84,95.87,95.89,95.92,95.78,95.78,95.78,,95.84,95.86,95.8,95.64,95.72,,95.7,,95.69,95.68,95.61,,,95.69,95.69,95.66,95.615,,95.58,95.55,95.53,95.46,95.505,95.515,95.54,,,95.46,,95.535,,,95.55,95.69,95.65,,95.61,95.56,95.54,,,95.525,95.52,95.46,95.525,95.45,,,95.48,95.515,95.43,,,,95.41,95.4,95.34,,,95.46,95.49,95.49,,95.59,95.56,,,,95.65,,,95.71,,95.66,,,95.65,95.595,95.58,95.55,95.56,95.54,95.47,95.46,95.45,95.47,95.43,95.41,95.33,,,95.28,95.315,95.335,95.33,95.35,95.4,95.38,95.42,95.345,95.305,,95.29,95.21,95.16,95.15,,,,,95.195,95.19,95.19,95.195,95.19,,95.19,95.16,95.15,,95.1,95.09,,,,95.04,,95.03,95.03,95.04,95.025,95.08,95.055,95.06,95.05,95.1,95.09,95.125,95.1,95.07,95.04,95.07,95.06,,95.04,95.11,95.11,95.04,95.165,95.14,,95.22,,95.26,,95.14,,95.19,95.235,95.165,95.22,95.24,95.205,95.18,95.16,95.02,95.075,,95.21,95.21,95.275,95.3,95.37,95.46,95.57,95.55,,,95.57,,,,95.61,95.565,95.58,95.59,95.65,95.67,95.64,95.65,95.63,,95.645,95.68,95.715,95.79,95.73,95.74,95.735,95.78,95.79,95.71,95.77,95.91,95.91,95.85,95.88,95.83,95.81,95.8,95.81,95.93,95.92,95.855,95.83,95.85,95.92,95.92,95.99,95.92,95.94,95.93,95.93,95.9,95.99,95.925,95.91,95.96,95.98,95.88,95.84,95.85,95.87,95.84,95.88,95.91,95.9,95.94,95.98,95.94,95.89,95.99,95.99
2019-05-01,95.905,,,95.82,95.82,95.815,95.88,,95.73,95.715,95.47,,95.23,95.33,95.54,95.785,95.73,95.77,95.79,95.615,95.64,95.65,,95.45,95.32,95.34,95.225,95.25,95.17,95.08,95.02,95.05,94.91,94.83,94.86,94.87,,95.24,95.215,95.11,,95.265,95.155,95.045,95.115,95.06,95.07,95.15,95.17,95.225,,95.325,95.265,95.325,95.29,95.27,95.27,95.08,95.0,95.0,94.65,94.71,94.71,94.65,94.78,94.81,94.855,94.895,,94.97,94.735,94.68,94.735,94.795,94.855,94.87,94.75,94.83,94.695,,,94.54,,94.48,94.465,94.37,,94.32,94.345,94.18,94.175,94.09,94.11,94.1,94.115,94.17,94.08,94.135,93.98,94.08,94.16,94.08,94.14,94.07,94.03,,93.9,93.94,93.99,,94.0,93.92,,,93.965,94.04,94.0,93.95,94.02,93.96,93.99,93.95,93.93,93.97,,93.98,93.95,93.95,94.01,93.96,93.995,94.24,94.24,94.22,94.19,94.16,94.17,94.135,94.04,94.045,94.065,94.09,94.065,94.01,94.07,94.06,94.05,94.07,93.98,94.085,94.01,93.965,93.94,94.005,94.04,94.025,93.96,93.88,93.91,93.78,93.77,93.74,93.77,93.62,93.58,93.57,93.6,,93.52,93.48,93.44,93.535,93.56,93.6,93.6,93.61,,93.67,93.645,93.63,,,93.47,93.44,93.45,93.5,93.44,,93.39,93.36,93.41,93.33,93.345,93.37,93.35,93.33,93.31,93.25,93.21,93.19,93.22,93.16,93.12,93.125,93.14,93.29,93.375,93.33,93.38,,93.51,93.435,93.36,93.35,93.47,,93.37,93.34,93.385,93.34,,93.455,93.4,93.34,,,,,93.41,93.465,93.41,93.345,93.215,,,,93.34,93.28,,93.33,93.27,93.21,93.3,93.28,93.36,,93.4,93.47,93.49,93.54,93.53,,93.58,93.6,93.51,93.4,93.475,93.465,93.465,,,93.45,93.55,93.55,,,93.52,93.5,,93.45,93.49,93.44,93.365,93.445,93.46,93.64,,93.82,93.71,93.66,93.6,93.54,93.61,,93.61,93.59,93.745,93.77,93.805,93.77,93.73,93.72,93.81,93.83,93.86,93.83,93.775,93.76,93.72,93.64,93.55,93.52,93.59,93.39,93.405,93.44,93.435,93.4,93.33,,93.17,93.2,,93.16,93.165,93.1,93.09,,,93.13,93.13,93.23,93.22,93.33,93.44,93.48,93.53,93.55,93.47,93.47,93.57,93.46,,93.22,,,93.34,,93.31,,93.31,93.28,93.28,93.23,93.26,93.3,93.26,93.31,93.31,93.27,,93.18,93.18,93.1,92.98,,92.96,92.965,93.0,92.985,92.94,92.875,92.83,92.82,92.765,92.76,92.77,92.71,92.7,92.655,92.6,92.72,92.74,92.75,92.71,92.57,92.62,92.52,92.53,92.55,92.51,92.58,92.55,92.58,92.48,92.35,92.36,92.28,92.21,91.88
2019-05-02,91.12,,91.1,91.02,91.585,91.71,91.83,91.68,91.85,92.15,91.82,,91.645,91.66,92.0,91.87,91.76,,91.96,91.9,91.915,91.93,91.705,,91.56,91.7,91.685,91.405,91.58,91.59,91.63,91.79,91.62,91.67,91.66,91.675,91.64,91.53,91.525,91.395,91.3,91.32,91.25,,91.48,91.46,,,91.36,91.31,91.27,91.6,91.58,91.64,91.65,91.57,91.64,91.49,91.48,91.4,91.35,91.38,91.41,91.45,,,91.29,91.09,,,,90.91,,,90.83,90.82,90.805,90.735,90.67,90.7,,,90.73,90.74,90.635,90.86,90.71,90.67,90.61,,90.53,90.47,90.47,90.475,90.52,90.46,90.51,90.49,90.41,90.51,90.455,90.45,90.535,90.39,90.455,90.39,90.335,90.23,90.16,90.04,89.88,89.86,89.96,89.89,,,89.92,90.0,89.82,89.76,89.9,89.94,90.01,89.93,,90.005,90.0,,,89.88,89.82,,89.77,,89.72,,,,,89.955,89.85,,89.57,89.63,89.49,89.48,89.465,,89.34,89.47,,,,89.64,89.61,89.82,89.875,89.81,,89.84,,89.79,89.83,89.91,89.7,89.61,,89.64,89.6,89.57,89.5,,89.575,89.63,89.59,89.53,89.77,89.755,89.675,89.73,89.83,90.06,89.96,89.86,89.865,89.825,89.855,89.82,89.865,89.79,89.8,89.775,,,89.765,89.84,89.8,,89.77,89.78,89.775,89.665,89.57,89.6,89.665,89.66,89.68,89.6,,89.73,89.73,,,,89.43,89.5,,89.41,89.475,89.465,89.57,89.52,89.6,,89.61,,89.77,89.76,89.765,89.81,89.875,,89.99,90.01,89.97,89.985,,89.92,,,89.95,89.93,89.86,89.87,89.85,,89.83,89.83,89.84,89.84,89.8,89.76,89.72,89.79,89.825,,89.845,89.8,89.75,,89.75,89.75,,89.73,89.68,,89.74,,89.63,,,89.63,89.58,89.56,89.55,89.61,89.61,89.55,89.59,89.68,89.63,89.56,,,89.75,89.61,,89.75,89.75,,89.67,89.65,89.755,89.88,,89.9,89.935,89.725,89.55,89.64,89.66,,89.66,89.61,89.7,89.63,89.59,,89.77,89.695,89.75,89.675,89.8,89.795,89.845,89.77,,89.665,89.665,,89.575,89.77,89.8,89.795,89.705,89.75,,89.79,89.695,89.73,89.79,,89.77,,89.76,89.79,89.75,,89.7,89.63,89.64,89.67,89.64,89.62,89.57,89.555,,89.725,,89.79,89.74,89.73,,,89.8,,89.81,,89.76,89.83,89.81,,,89.63,89.605,89.57,89.66,89.67,89.7,89.72,89.615,89.6,89.66,89.73,89.79,89.7,89.67,89.795,89.79,89.745,89.69,89.625,89.625,89.565,89.655,89.51,89.49,89.52,89.405,89.08
2019-05-03,,92.105,92.15,91.85,92.0,91.76,91.31,91.52,91.175,90.95,,91.14,91.21,91.22,91.13,90.92,90.26,89.96,90.4,90.58,90.775,90.82,90.93,90.925,,91.005,91.14,,90.915,91.14,91.035,90.92,91.28,91.55,91.67,91.75,91.885,91.835,,91.73,91.755,91.91,91.83,91.925,91.825,91.86,92.08,92.135,92.11,92.35,92.24,92.31,92.43,92.4,92.51,92.58,92.715,92.93,93.09,92.98,92.89,92.84,92.82,92.885,93.0,92.88,92.93,92.92,92.99,93.005,93.06,93.01,92.99,93.04,93.04,93.0,93.02,93.12,93.05,93.01,92.99,93.0,92.96,93.01,92.945,93.04,92.975,92.94,92.96,93.0,92.975,93.02,93.325,93.35,93.22,,93.355,93.31,93.35,93.48,93.45,93.4,93.24,93.12,93.13,92.985,92.97,92.78,92.665,92.665,,,92.66,92.66,92.72,92.88,,,,92.76,92.75,,92.775,,92.73,92.72,,,,92.78,92.78,92.75,92.83,92.83,92.81,92.72,92.68,92.61,,92.65,92.65,92.73,92.78,92.77,92.66,92.72,92.68,92.63,92.65,92.6,,92.7,92.78,92.715,,92.83,92.885,92.93,92.92,,92.9,92.9,92.76,,92.73,92.755,,92.8,92.76,92.75,,,92.78,,92.74,92.78,,92.78,92.75,92.76,92.8,,92.86,92.77,92.75,92.74,92.79,92.77,,92.825,92.92,92.94,92.995,93.015,93.03,92.87,92.86,,,93.02,93.0,93.01,92.94,,92.85,,92.74,92.75,,92.74,,92.78,,92.81,92.73,,,,92.705,92.715,92.68,92.69,92.7,92.68,92.665,92.7,92.65,92.55,92.675,92.65,,92.76,92.7,,92.66,92.735,92.64,92.575,92.62,92.62,92.68,92.61,92.53,92.42,92.3,92.28,92.15,,92.09,,92.12,,,92.14,92.02,,,92.12,92.12,92.14,92.2,92.16,92.12,92.12,92.0,91.84,91.83,91.78,91.86,91.81,,91.755,,91.68,91.7,,91.84,91.83,91.84,91.94,,,,,92.03,92.12,,92.15,92.135,,92.165,92.22,92.22,,,91.945,91.96,91.93,,,91.89,,,91.78,,,91.77,91.72,91.665,91.64,91.64,91.68,,91.73,91.71,91.77,91.79,91.77,91.71,91.72,91.735,,,92.03,92.125,92.17,92.09,,91.92,,91.82,91.82,,,91.77,,91.78,91.88,,,,,,91.76,91.75,,,91.72,91.72,91.69,91.72,91.69,91.68,91.73,91.69,91.76,91.76,,91.82,91.64,,91.65,91.64,91.555,91.65,91.6,91.58,91.53,91.61,91.56,91.67,91.61,91.47,91.47,91.48,91.4,91.42,91.32,91.22,91.25,91.34,91.35,91.36,91.255,91.47,91.5,91.53,91.55,91.49,90.84
2019-05-06,89.65,90.19,,90.53,,90.48,90.18,90.1,89.945,,90.0,,,,90.0,89.97,90.01,90.185,90.085,90.06,89.935,90.05,89.97,90.285,90.42,90.705,90.58,90.7,90.855,90.685,90.76,90.69,,90.59,90.605,90.755,90.855,,91.2,91.33,,91.27,91.385,91.38,91.595,91.55,91.495,91.39,91.525,91.455,91.36,91.44,91.32,91.0,91.21,91.215,91.23,91.265,,91.115,90.9,90.86,,,90.73,,90.725,,90.92,90.9,90.99,91.03,91.015,90.795,90.78,,90.795,90.7,90.595,90.445,90.51,,90.55,90.68,90.625,90.7,90.78,90.805,,,,90.85,,90.82,90.72,90.635,90.57,90.57,90.5,90.48,90.475,90.52,90.49,,90.72,,90.905,91.07,91.01,91.01,,91.015,90.99,90.92,,,,90.96,,91.0,91.06,,90.91,90.72,90.72,90.78,90.845,90.975,,,91.11,91.12,91.11,91.01,90.945,,91.19,91.11,,,90.96,90.85,90.815,90.94,90.79,90.78,90.68,90.61,90.54,90.525,,90.53,,,90.56,,90.55,90.6,90.63,90.68,,90.63,,90.69,90.69,,,90.805,90.8,,,90.99,90.91,,90.98,90.985,,90.93,90.87,90.87,90.78,90.675,90.62,90.575,90.57,90.625,90.625,,90.55,90.64,,,,90.71,90.71,90.695,,90.695,,,90.62,90.615,90.645,90.67,90.745,90.73,90.705,90.76,90.805,90.71,90.67,90.675,90.67,90.69,90.695,90.75,90.79,90.8,90.775,90.6,90.63,,,90.685,90.64,,90.815,,90.85,90.805,90.84,,90.845,90.86,,,90.89,90.915,90.905,90.88,90.91,,90.88,,,90.91,,90.915,90.895,90.9,,90.91,,,,,91.26,91.235,91.27,,91.38,,,91.36,,91.395,91.33,,91.245,91.24,91.21,91.15,91.17,91.21,,91.195,91.23,91.225,91.25,91.31,91.255,91.175,91.26,91.21,91.22,91.2,91.26,91.14,,,,91.155,91.11,,91.15,91.14,91.2,91.23,,91.23,91.28,91.295,91.28,91.165,91.205,91.2,91.21,91.205,,,91.34,,91.395,91.41,91.395,91.43,91.43,91.44,91.57,91.55,,91.605,91.61,91.61,91.6,,91.62,91.65,91.63,91.59,,91.67,,91.79,91.73,91.83,91.8,91.725,91.73,91.65,91.62,91.63,91.61,91.595,91.52,91.5,91.53,91.57,91.64,91.61,91.625,91.695,91.655,91.67,,91.84,91.795,91.785,91.82,91.755,91.63,91.63,91.52,91.5,91.54,91.57,91.455,91.52,91.48,91.42,91.41,91.265,91.24,91.25,91.27,91.225,91.175,91.19,91.185,91.235,91.37,91.385,91.49,91.475,91.34,91.29,91.3,91.38,91.34,91.25
2019-05-07,89.94,89.945,89.91,89.895,89.86,89.87,89.965,90.47,90.65,90.705,90.29,90.62,90.45,90.55,90.32,,90.51,90.29,,,89.83,89.83,89.905,,90.46,90.53,90.54,,,90.61,90.73,90.48,90.63,90.67,90.8,90.73,90.665,90.87,90.835,90.72,90.74,90.81,,91.07,91.14,91.1,90.98,90.94,,91.06,91.155,91.2,91.24,91.24,,91.2,91.23,91.26,91.25,91.34,91.28,91.12,91.12,,90.75,90.57,,90.575,90.68,90.655,90.89,90.915,91.005,90.88,90.91,90.955,90.91,90.78,90.75,90.77,90.625,90.555,90.59,90.67,90.61,90.595,90.585,90.6,90.7,90.56,90.81,90.56,90.55,90.47,90.46,90.495,90.495,90.5,90.505,90.55,,90.695,90.65,90.55,90.71,,90.72,90.75,,90.71,90.63,,,90.65,90.665,90.65,90.665,,90.84,90.94,,91.07,91.14,91.04,,,90.79,90.59,90.725,90.7,90.955,90.8,,,90.865,,90.965,,,90.89,,,90.7,90.715,90.76,90.75,,90.59,90.51,90.52,90.505,,90.475,90.495,90.635,90.63,90.75,,,,90.8,,,,90.76,90.71,90.79,,,,,,90.75,,,,90.7,,,,,,90.95,90.89,,90.93,90.91,90.92,,90.925,90.885,,90.94,90.945,90.88,90.925,,,,90.92,90.88,90.96,,90.93,,90.71,,90.61,90.73,90.725,90.73,90.71,90.725,90.67,90.63,90.545,90.51,90.525,90.465,90.45,,90.41,90.48,90.53,,,,90.575,,,90.365,,90.395,,90.46,90.43,,90.39,90.44,,90.29,90.32,90.34,90.4,90.55,90.45,90.46,90.27,90.35,,90.3,90.205,90.245,90.27,,,90.295,,90.395,90.49,90.52,,90.58,90.71,90.59,90.495,,,90.55,,90.6,,,,90.6,,90.75,90.81,,90.785,90.765,,,,90.765,,90.73,90.67,90.68,,,90.76,,90.71,90.64,90.69,,90.61,90.53,90.57,90.62,90.47,90.435,90.46,90.515,90.62,90.6,90.73,90.695,,,90.77,90.69,90.65,90.6,,90.61,90.67,,,90.65,90.715,90.71,90.765,90.805,91.02,90.995,91.035,91.05,91.02,91.09,,91.0,90.93,90.915,90.93,90.915,90.96,90.97,,,91.21,91.28,91.3,91.26,91.32,91.2,91.26,91.245,91.15,91.19,91.165,91.135,91.15,91.03,91.085,91.05,91.04,91.035,91.045,91.05,91.07,91.08,91.06,91.01,91.01,91.07,91.06,,91.08,91.135,,91.305,91.34,91.42,91.47,91.44,91.44,91.51,91.45,91.42,,91.57,91.66,91.71,91.83,91.69,91.74,91.69,91.75
2019-05-08,91.62,,92.235,92.03,,92.445,92.61,92.88,92.745,92.68,,92.835,92.85,92.66,,92.99,93.18,93.3,93.54,93.41,93.155,93.305,93.58,93.62,,93.29,93.15,93.11,93.08,93.24,93.46,93.44,93.34,93.2,,,93.56,,93.645,93.63,93.42,93.43,,93.42,,,93.42,,,93.33,93.455,93.425,93.58,93.645,93.76,93.66,93.675,93.565,,93.35,93.8,93.73,93.39,93.43,,93.49,93.45,93.435,,93.43,93.57,,93.62,93.58,93.63,,93.74,,93.87,93.805,,,93.785,,93.585,93.6,,93.58,93.64,93.95,94.14,94.08,94.13,94.295,94.35,94.49,94.505,94.65,94.65,94.395,94.39,94.185,94.215,94.45,94.5,94.49,94.46,94.285,94.475,,,94.3,94.225,94.18,94.08,,,,93.92,,94.01,94.01,94.01,93.81,93.95,93.97,93.99,93.87,93.83,,,93.78,,93.78,93.81,93.83,,93.92,,,93.92,,93.915,,94.0,,94.05,,,94.02,93.995,,93.87,,,,,93.9,,,93.78,93.72,93.785,93.765,93.73,93.74,,93.82,93.825,93.73,93.71,93.735,,,,93.82,93.84,93.895,93.9,93.88,,,,93.685,,,93.71,,93.57,93.58,93.57,93.6,,,,93.57,93.62,93.67,93.74,93.77,,93.81,93.75,93.71,,93.67,93.715,93.75,93.76,93.79,93.745,,,,93.79,93.76,93.72,93.8,93.78,93.77,93.795,93.795,,93.765,93.755,93.745,93.675,93.685,93.64,93.645,,93.72,,,93.83,93.77,93.815,,,93.71,,93.71,93.725,93.79,93.81,93.805,93.74,93.8,,,,,93.81,93.82,,93.805,93.81,93.71,93.73,93.79,,,93.83,93.75,93.72,93.725,93.78,,,,93.81,,93.705,93.74,93.73,,93.695,93.725,93.795,93.82,93.76,93.76,,93.655,,93.65,93.7,93.74,93.69,93.65,93.68,93.695,93.77,93.79,93.905,93.945,94.02,94.03,94.04,94.16,94.175,94.14,94.15,,94.25,94.24,94.21,94.15,,,94.29,94.24,94.19,94.22,94.29,94.305,94.15,94.17,,94.22,,,94.16,94.23,94.28,94.265,,94.155,94.25,94.175,94.26,94.2,94.255,94.22,94.15,94.1,94.19,94.22,94.13,,,94.21,94.21,94.32,94.24,94.15,94.125,,94.26,,,,,94.31,94.335,94.33,94.38,94.44,94.455,94.365,94.375,94.395,94.365,94.42,94.41,,94.47,94.46,94.34,94.4,94.39,94.35,94.24,94.305,94.3,94.29,94.22,94.29,94.32,94.27,94.15,94.23,94.24,94.22,94.17,94.09,94.16,94.165,94.13,94.05
2019-05-09,92.18,92.71,92.635,,,92.81,,92.735,,93.27,93.23,,93.21,,,92.66,92.63,,,92.625,92.32,92.17,,92.35,,92.335,92.515,92.48,,92.81,92.8,92.725,92.67,92.72,92.88,,92.805,92.96,92.92,92.99,92.88,,,92.85,92.88,92.835,,92.67,,92.55,92.47,92.66,92.675,92.76,92.735,92.765,92.75,,92.94,93.04,93.01,93.04,93.08,93.12,,92.955,92.98,92.82,92.75,,92.78,92.81,93.16,93.22,93.18,93.3,93.295,93.42,,93.42,93.39,93.49,,93.425,93.44,93.415,93.4,93.37,93.43,93.39,93.475,93.49,93.49,93.5,93.595,93.54,93.56,93.44,93.6,,93.755,93.82,93.755,,93.88,93.79,,,,,,93.46,,,93.34,93.37,93.26,93.15,93.155,93.155,93.3,93.25,93.4,,,,93.55,93.5,,93.65,93.77,93.655,93.615,93.68,93.76,93.79,,93.72,,,,,93.715,93.695,93.845,,,,93.725,,93.88,,,93.815,93.83,93.85,93.81,93.955,93.965,94.02,93.925,93.95,,,,93.92,,,94.14,,94.05,94.025,94.05,94.08,94.04,94.22,,94.19,94.32,94.29,94.35,,94.52,94.54,94.53,,,,94.72,94.78,,,94.67,94.65,94.63,94.67,94.69,94.635,94.56,94.61,94.59,94.53,94.67,94.78,94.76,,94.8,,94.84,94.85,94.98,,95.06,95.06,95.02,,,94.8,,,94.78,94.64,,94.78,94.76,94.71,,94.57,,94.55,94.48,,94.555,94.59,94.55,,,94.56,94.655,94.625,94.67,,,,,,94.71,94.59,94.605,,94.665,94.625,,,,,94.6,94.565,94.57,94.71,94.73,94.7,,94.66,94.63,94.665,94.655,94.7,94.715,94.675,94.81,,94.675,94.55,94.6,,94.75,94.73,94.645,,94.81,94.79,94.75,94.78,94.81,94.79,94.77,94.775,,94.715,94.73,94.79,,,94.715,94.675,94.64,94.465,94.485,,94.45,94.47,94.52,94.54,94.38,94.445,,94.37,,94.42,94.44,94.505,94.52,94.425,94.39,94.36,94.32,94.34,94.275,94.27,94.31,94.38,94.35,94.37,94.36,94.35,94.32,94.23,,94.15,94.09,94.12,,94.2,94.16,94.14,94.14,94.075,,93.91,93.865,93.94,93.94,94.03,93.975,,94.03,94.02,93.99,94.02,94.095,94.105,94.12,94.17,94.18,94.145,94.15,94.13,94.16,94.23,,94.31,,94.345,94.39,94.295,94.32,94.25,,94.37,94.35,94.28,94.26,,94.34,94.31,94.32,94.31,94.34,94.23,94.36,94.33,94.32,94.31,94.32,94.34,94.35,94.31,94.35,94.28
2019-05-10,94.205,,93.84,93.95,94.065,94.015,93.93,94.115,94.14,94.2,94.21,94.145,94.185,93.92,93.95,93.835,93.925,,94.08,93.84,93.72,93.6,93.685,93.73,93.73,93.79,,93.63,93.755,93.64,93.62,93.55,93.645,,93.555,93.44,93.4,93.39,,93.48,,93.45,93.48,93.39,93.35,93.06,92.905,92.98,92.99,,92.94,92.9,92.905,92.83,92.825,93.04,,,93.08,93.09,93.135,93.045,93.095,93.02,,92.995,,92.885,92.785,92.72,92.8,92.65,92.78,92.74,92.8,92.895,93.025,93.16,93.05,92.95,93.065,93.19,93.16,,93.14,93.15,93.14,93.2,93.28,93.205,93.24,,93.13,,93.095,,93.23,93.29,,93.05,93.1,93.08,93.09,93.165,93.15,93.17,,93.34,93.34,93.405,93.505,,93.615,93.585,93.59,93.565,93.525,93.65,,93.58,93.56,93.43,,93.485,,93.45,93.54,,93.66,,93.57,93.62,93.4,93.305,93.4,93.48,93.36,,93.34,93.34,93.3,,,,93.455,93.635,93.54,93.575,93.66,,93.76,93.76,93.695,93.725,93.67,93.62,93.585,93.53,,,93.54,93.62,93.74,,93.785,93.765,,93.78,93.86,93.86,93.8,,93.86,,93.84,,93.955,93.98,,,,94.115,94.2,94.28,,,,,,,,94.165,94.055,,,94.18,,94.23,,94.065,,,,,,94.34,94.2,94.265,,,94.28,94.39,,,,94.405,94.35,,,,,94.38,,,,,94.16,94.26,94.32,,,,94.52,94.39,,94.47,,,94.51,94.48,,94.52,94.53,94.575,,,94.545,,94.475,,94.56,,94.525,94.47,,,94.58,,94.64,,94.59,94.62,94.58,,94.62,,94.5,,,94.575,94.58,94.52,94.625,94.625,,,94.62,94.7,94.7,94.675,,94.705,94.68,94.67,94.535,94.46,94.48,94.415,94.35,94.325,94.3,94.22,94.125,94.06,94.11,94.03,,94.18,94.19,,94.21,94.215,94.215,,,94.24,94.27,94.295,94.39,,94.425,94.425,94.38,,94.375,94.365,94.375,94.41,,94.4,94.445,94.47,94.57,,94.5,94.55,,94.61,94.575,94.7,94.59,94.72,94.77,94.675,94.78,94.795,94.8,94.72,94.695,94.78,94.765,,,,94.85,,94.885,,95.02,,95.11,95.045,95.12,,95.085,95.145,95.17,,,95.16,95.115,95.0,95.025,94.97,,94.77,,,94.69,94.71,94.7,94.66,94.665,94.615,94.64,94.69,94.76,94.72,94.645,94.64,94.71,94.71,94.72,94.79,94.79,94.86,94.79,94.89,94.92,95.02
2019-05-13,,,,,94.35,94.56,94.69,94.52,94.63,,94.54,,94.66,,,,,,94.88,94.705,,94.46,94.445,94.42,,,,94.295,94.305,94.34,,,94.14,94.07,94.185,,93.97,93.985,93.99,,93.62,93.645,93.75,93.745,93.72,93.79,93.91,94.14,94.22,94.135,93.995,93.92,93.9,,94.09,94.17,,94.12,94.23,94.25,94.22,94.39,,94.305,94.335,94.52,94.585,94.455,94.615,94.86,94.89,95.08,95.215,95.26,95.235,95.22,95.2,95.07,94.995,94.77,,,,94.8,,94.75,,,,94.81,94.96,94.94,94.69,94.61,,94.49,,94.665,94.58,94.575,94.48,,94.515,,94.31,,94.235,94.02,,94.06,94.18,94.14,94.07,,94.18,94.09,94.01,93.895,93.885,93.96,,93.99,93.99,,94.02,,,93.9,,,,93.68,93.8,93.89,93.9,93.94,,93.87,93.79,93.84,93.82,93.68,,,,93.59,93.59,93.805,,,,,,93.785,93.8,93.795,93.815,93.78,93.66,93.65,93.7,93.775,93.65,93.81,,,93.63,,,93.815,93.805,,93.83,,93.82,93.85,,,93.82,93.81,93.71,93.62,93.69,93.92,93.695,93.85,93.765,93.85,94.0,94.015,93.98,93.98,93.84,93.8,93.9,93.9,93.9,,,93.97,93.975,,94.085,,94.035,,93.775,93.895,,93.9,93.835,93.75,93.705,93.78,93.83,93.785,93.75,93.755,93.625,93.56,93.59,,93.7,93.76,,93.75,93.68,93.86,,,93.72,,,,93.78,93.86,93.79,,93.715,,93.8,93.91,,93.725,,,,,93.79,93.94,93.85,93.79,93.78,93.72,93.71,93.62,93.62,93.565,93.675,93.645,,,,,93.61,,93.645,93.585,93.61,93.66,,93.7,93.7,93.765,93.755,93.825,93.85,,,93.87,93.86,,93.66,93.685,93.605,93.64,93.5,93.61,93.72,93.57,93.75,,93.635,,93.56,93.94,93.87,,93.87,93.955,,,,,93.735,93.7,93.63,,,93.76,93.625,,,,,,93.68,,,,,,,,,,,93.9,,,93.91,93.87,,93.68,,93.66,93.68,,93.77,,93.64,93.65,93.62,93.5,93.495,93.47,,,93.41,93.39,93.345,,,,93.37,93.32,,93.25,,93.28,93.355,93.34,93.33,,,93.42,93.325,93.36,93.33,93.33,93.42,93.39,,,93.325,93.41,93.36,93.45,93.48,,,93.435,93.47,93.4,93.42,93.52,93.51,93.525,93.59,93.49
2019-05-14,94.1,94.1,,,94.54,94.56,94.55,,,,94.375,94.405,,94.495,94.44,,94.465,94.51,94.6,94.28,,94.17,94.09,,94.13,94.14,,94.37,,94.46,94.51,94.535,94.755,,,94.56,,94.71,94.66,94.72,,94.615,94.705,94.54,94.45,94.6,94.63,94.65,94.645,94.81,94.93,94.86,94.93,94.885,94.9,94.84,94.835,94.92,95.055,95.06,,95.0,95.12,95.2,,95.09,95.05,95.05,,,,95.085,95.105,95.035,,,95.09,95.05,,94.97,94.97,,94.885,,,94.71,,,94.57,94.6,94.64,94.655,,,94.55,94.7,94.85,,,94.65,94.72,94.71,94.765,,94.74,,94.78,94.84,94.93,,95.01,94.975,94.79,94.78,94.97,94.92,94.87,,94.81,,94.795,94.87,,,94.86,94.99,94.98,94.95,94.96,94.85,94.91,94.93,94.97,94.95,,94.85,94.905,94.91,94.98,,94.92,95.01,95.05,95.065,,95.18,95.245,,95.125,,95.1,,,,95.245,95.23,,95.2,95.15,,95.12,,,,95.11,,95.05,,,,94.91,94.94,94.9,94.885,94.82,,94.82,94.81,,94.81,94.85,,94.865,,94.95,,94.94,,,95.03,95.03,,,95.075,,,,95.01,,,,95.07,,,95.17,95.13,95.075,95.13,95.06,95.05,95.09,,,,,95.01,,,,,95.14,95.15,95.21,95.21,95.235,95.27,95.22,,,95.17,95.155,,95.12,,95.18,,,,95.17,,,95.165,95.17,95.13,,95.13,95.16,95.145,95.09,95.04,,,94.92,,,,,,94.87,,94.945,94.93,94.89,,,,94.99,94.97,94.98,,94.91,,94.93,,,,,94.74,94.72,94.76,94.77,94.82,94.82,,,94.815,,94.84,94.81,94.77,94.77,94.75,94.73,94.76,94.77,94.8,94.77,94.69,,,94.66,94.62,94.61,94.63,94.63,,,94.59,94.59,94.61,,94.595,,,94.6,,94.48,,94.42,94.36,94.31,94.26,94.28,94.31,94.265,94.325,94.33,94.365,94.355,94.35,94.36,94.4,94.35,94.45,94.475,94.43,94.42,,94.43,94.53,94.54,94.45,,,94.35,94.38,,94.29,94.34,94.37,94.4,94.34,,,,,94.4,94.44,94.43,,,94.335,,94.23,94.2,94.245,,94.135,94.175,,94.195,94.15,94.175,94.255,94.23,94.1,94.21,94.2,,94.28,94.29,94.26,94.22,94.23,94.3,94.35,94.24,94.29,94.28,94.315
2019-05-15,,,,93.185,93.63,,,93.845,93.7,,93.705,93.7,,,93.685,,,,,,93.82,93.71,,93.7,93.84,,,93.77,93.495,93.575,93.625,,93.455,93.41,93.47,93.32,93.3,93.345,93.45,93.3,93.37,93.435,93.39,93.59,93.83,93.77,93.63,93.61,93.625,,,93.59,93.61,93.505,,93.6,93.715,,,93.675,93.6,93.665,93.76,,,93.69,,93.63,93.7,93.75,93.8,93.825,93.735,93.83,93.89,93.94,,94.04,93.92,,,94.085,,94.105,94.045,,93.975,,,93.905,93.835,93.805,,93.69,,93.7,,93.725,93.81,93.82,93.89,,94.0,93.995,,,94.13,94.06,,94.035,94.095,94.04,94.01,94.14,,94.22,94.315,,,,,,94.17,,94.29,94.23,,94.125,94.2,,94.265,,94.395,,,94.27,,,94.265,,94.335,94.31,94.2,,,,94.32,,94.405,94.4,94.51,,94.51,,94.535,94.505,94.51,,,94.56,94.46,94.535,,94.445,94.52,,,,,94.37,,,,,94.31,,94.3,94.32,,,,,,,,94.455,94.33,,94.31,94.31,,,94.24,,94.25,,,94.15,,94.25,,,,,,94.42,94.395,94.35,,94.22,94.25,94.275,,94.33,,94.355,,,94.31,94.32,94.315,,94.27,94.26,94.235,94.195,94.23,,94.185,,94.15,,,,94.09,,94.13,94.15,,94.16,,94.26,94.26,94.25,94.34,,,94.38,94.39,,,,94.35,,,,94.21,,94.2,,,,,,,94.23,,94.19,94.19,,94.175,94.175,94.16,,,94.215,,,,,94.275,,,,,94.13,,,94.22,,,94.3,,,94.395,,,,,,,94.225,94.26,,,,,,94.135,94.17,,,,94.27,,,,94.35,,,94.39,,,,,,94.275,94.28,,,94.24,94.275,,94.13,94.15,,,,,,94.12,94.03,,94.12,,,,94.195,94.29,94.3,,94.39,,,,,94.38,,,,94.44,94.455,,,94.38,,,94.51,,,,,,,,94.605,94.565,94.52,94.56,,,94.59,94.62,94.61,94.57,94.48,94.44,94.48,94.475,94.38
2019-05-16,,,,,,95.22,95.49,,,,95.405,,,95.55,95.12,94.9,94.9,94.95,95.125,95.19,,95.09,95.25,,,95.7,,,,,95.6,95.55,95.51,95.5,,,95.445,95.615,95.585,95.57,,95.425,95.31,,,,95.405,95.32,,95.36,95.4,,,95.475,95.515,,,95.4,95.44,,95.655,95.63,,95.53,95.575,95.53,95.575,95.59,,,,,,,95.8,,,,,95.66,95.67,95.535,95.52,,95.61,95.65,,,,,95.735,95.89,95.995,96.08,,,,,,,95.815,95.88,,,,95.945,95.98,96.02,96.045,,,,,,,95.955,95.975,,96.0,,95.98,,,,,,95.87,95.75,,,,,,,95.93,95.98,95.92,95.94,95.95,95.95,,96.01,95.99,,,96.07,96.05,96.03,,96.21,,96.19,,96.12,96.11,,,96.15,,,,96.025,,96.04,,96.01,95.975,96.04,96.07,96.0,95.96,,95.92,95.915,95.9,95.92,95.895,95.935,95.89,95.88,95.89,,95.935,,95.95,,,95.98,95.99,96.0,95.96,,95.97,,,,,,,,,,,95.885,,,,,,95.94,,95.83,,95.7,95.73,95.69,95.7,,95.82,,,95.815,95.83,95.82,,95.785,95.78,,,95.805,95.78,95.76,95.79,,,95.74,,,,,95.755,95.79,,,,95.745,,,,95.71,,95.62,95.62,95.6,95.62,,95.675,95.56,,95.49,95.5,95.49,,95.455,95.46,95.465,,,95.55,95.66,95.64,,95.71,,,,,,,95.585,,95.6,95.58,95.595,95.63,95.655,,,,95.72,,95.67,,,95.81,95.78,95.785,,95.7,,,95.7,95.66,,,95.64,,95.73,,95.825,95.83,95.845,95.815,95.85,95.905,95.92,95.915,95.88,95.825,,95.82,95.81,95.77,,95.64,95.62,95.66,95.64,95.59,95.62,95.62,,,,,95.745,95.725,95.55,95.58,95.61,95.53,95.545,95.505,95.47,95.45,95.455,,95.45,,95.395,95.42,,,95.52,,95.515,95.57,95.595,,95.565,95.55,95.565,95.5,95.445,95.485,95.51,95.485,,95.31,95.29,95.23,95.21,95.07,,95.07,95.09,95.115,95.04,95.07,95.09,95.175,95.21,95.265,95.35,95.335,95.265,95.23,95.225,95.27,95.18
2019-05-17,94.305,,94.515,94.49,,94.475,94.53,94.39,94.375,94.275,94.11,94.28,94.335,94.3,94.335,94.33,,,94.33,,,94.035,,93.95,,,94.185,,94.16,94.21,94.3,94.25,94.19,,,94.05,94.05,94.06,94.045,94.09,94.04,94.06,93.93,93.91,93.78,,,93.8,93.915,93.9,,94.07,,,94.18,,94.055,94.06,94.015,93.95,93.94,93.9,93.885,93.88,93.92,,,93.555,93.53,,,93.385,,93.41,93.44,93.45,93.275,93.32,93.37,93.48,93.65,93.64,93.71,93.75,,93.93,94.09,94.16,,93.9,93.93,,93.955,93.92,93.96,94.1,94.075,94.2,94.145,,,93.91,93.95,93.99,,93.98,94.01,,94.17,94.2,94.25,94.15,,94.1,,94.005,,93.865,93.83,,93.78,93.7,93.75,93.75,93.8,,93.83,93.76,93.775,93.73,93.65,93.68,93.59,93.48,,93.57,93.58,93.575,93.57,93.545,93.55,93.615,,93.55,93.695,,,93.62,93.725,93.74,93.67,93.755,93.775,93.81,93.795,93.7,,,93.69,,93.48,93.39,93.395,93.455,,,93.295,,,93.395,93.395,93.355,,93.43,93.38,,93.32,93.315,93.305,93.25,93.15,93.095,93.08,93.07,93.015,93.09,93.065,93.105,93.135,93.085,93.015,93.1,93.12,93.17,93.09,93.115,93.1,93.06,92.99,93.03,92.985,93.0,93.005,93.01,,,92.95,92.98,,92.87,92.855,92.86,92.91,92.92,,,92.9,,92.97,93.015,,92.955,,,92.895,92.96,93.05,93.045,93.04,93.02,93.035,,93.05,,,93.01,93.08,,93.085,93.13,,,,93.18,,93.31,93.32,93.35,93.32,93.33,,93.275,93.215,93.24,,93.31,,93.345,,,93.44,,,,,93.36,93.37,,,93.48,,,,,93.3,93.3,,93.31,93.29,93.27,,93.12,,93.105,93.06,93.025,93.02,93.015,93.06,93.03,93.05,,,93.02,,92.97,92.92,92.9,,92.91,92.86,,92.94,92.99,93.05,93.03,93.03,93.08,,93.15,,93.045,,93.04,93.085,93.09,,93.115,93.12,93.135,93.09,93.15,93.2,,,93.29,93.37,,,,93.37,93.15,93.075,,93.1,,92.99,92.96,92.88,92.905,92.85,,,92.78,,92.79,92.73,92.775,92.78,,92.83,92.77,92.8,92.84,92.82,,92.775,92.79,92.81,92.86,92.86,92.79,92.74,92.7,92.785,92.825,92.91,92.93,92.99,92.91,92.86,92.84,92.95,92.965,92.98,92.945,93.0,92.95,92.98,92.94,92.94,93.1,93.07,93.055,93.09,93.06,93.2,93.16,93.02,93.0
2019-05-20,,,93.33,,93.29,93.1,,93.14,,93.0,93.17,93.23,93.29,,,,,,93.52,93.5,93.45,93.395,,93.27,93.235,,93.525,,,,93.76,93.81,93.85,93.77,,,93.7,93.735,93.76,93.94,93.87,93.98,94.05,94.11,94.075,,94.235,94.23,,94.09,94.11,94.02,94.15,94.175,94.29,94.3,94.3,,94.3,94.32,94.25,94.2,94.17,94.19,94.175,,,,94.27,,,,,94.385,94.39,94.34,94.24,94.23,94.29,,,94.235,94.38,,94.5,,,94.465,,,94.44,94.435,94.24,94.16,,,,,94.04,,93.92,,,,,94.04,,94.01,93.86,93.805,,93.675,,93.65,,93.63,93.62,93.73,,,93.9,,,93.945,93.895,,93.77,,,93.85,93.915,93.985,,,,93.87,93.83,,,,,93.99,,93.99,93.96,,,,,94.03,94.07,94.07,94.14,,,,,94.04,,,,,94.09,94.065,94.11,,94.11,94.05,94.03,,,94.015,,,,94.07,,,,,,,,93.88,93.97,93.96,94.09,,,94.025,93.935,93.95,,94.03,,,94.07,,,,,93.98,93.97,,93.93,,93.875,,,,93.81,,,93.75,,,,93.74,,,,93.77,,93.71,93.66,,93.75,,,93.74,93.69,93.725,,,,93.68,93.65,,,,,93.58,93.535,,93.57,,93.57,,,93.5,,,,93.57,93.52,93.54,,93.525,93.54,93.54,,,,,,,,,93.435,,,,,,,,,93.4,,,93.43,,93.51,93.5,,,,93.51,,,93.45,,,,,93.57,93.61,,,,,93.54,93.59,,93.56,,,,,,,,,,,,,93.61,93.58,,,,,93.55,,,93.55,93.56,93.56,93.5,93.495,,93.45,,,,93.355,93.365,,93.365,,93.36,93.39,,,93.39,93.425,93.53,,,,,,93.49,,93.44,,93.425,,,,93.48,93.595,93.58,93.635,93.635,93.73,93.72,93.71,93.74,93.655,93.7,,93.63,93.605,93.6,93.61,93.565,93.57,93.54,93.55,93.535,93.58,93.66,,93.72,93.76,93.62,93.56,93.65
2019-05-21,94.31,94.31,94.41,,94.21,94.25,94.275,94.405,,,,94.63,94.77,94.81,94.805,94.65,94.77,,,,95.01,95.03,95.05,95.0,95.01,95.02,95.03,95.08,95.05,95.045,95.025,,95.17,95.275,95.2,95.135,,95.21,,95.02,94.97,95.06,95.18,95.09,,95.125,,95.185,95.05,95.01,,,94.99,94.85,94.84,,95.035,94.975,94.96,94.82,,,,94.925,94.93,,94.92,94.81,94.775,94.72,94.805,94.73,94.72,94.795,94.88,,94.98,95.0,94.965,94.945,,,94.985,94.945,94.945,,95.0,95.09,95.005,,95.145,95.165,,95.075,94.99,,95.135,,94.955,94.97,94.94,,,,94.985,95.11,95.01,95.005,94.995,,95.085,95.075,,,,95.18,95.19,,,95.03,,,,,,,,,,94.77,94.81,,94.89,94.91,,,94.91,94.9,,,94.8,,94.655,,94.62,,94.61,94.67,94.645,94.74,,,94.78,94.765,94.77,94.85,94.8,,,,,94.905,,94.87,94.95,,,94.87,94.89,94.93,,,,95.015,94.97,,,,94.98,94.99,94.99,,,,,,,95.04,,,,,,,95.0,,95.05,95.0,,,95.07,,95.05,,95.06,,,,,95.04,,,95.06,95.07,95.03,95.01,94.97,94.9,94.89,94.89,,,,94.93,94.93,,,,,,,94.86,,94.885,,,94.86,,94.87,,,94.96,,,,,94.93,94.94,,94.995,94.975,,,,,,,,,,,,,,,,94.99,,94.99,,95.0,,,95.06,,,,,,,,,95.11,95.13,95.16,95.18,95.21,95.21,,95.2,,,95.2,,95.21,95.195,95.14,95.215,,,,95.16,95.19,95.205,95.21,95.21,,,,95.26,95.345,95.34,,,,,,95.47,95.545,95.56,,,95.505,95.53,,,95.48,95.465,,95.46,95.48,95.48,95.445,,95.46,,,,,95.51,,,,95.46,,,,,,,95.4,,95.375,95.4,95.37,95.37,,95.56,95.53,95.6,95.605,95.67,95.67,95.63,95.63,95.72,95.76,,95.79,,95.915,95.89,95.865,95.86,95.89,,95.865,95.855,95.89,95.88,95.86,95.885,,95.875,95.84,95.835,95.785,95.76,95.76,95.69
2019-05-22,,95.085,95.34,95.38,94.91,94.95,,,,,94.995,94.96,94.95,,94.97,95.035,,,,94.84,94.915,94.92,94.86,,94.97,94.94,95.1,95.095,95.15,95.3,95.29,95.28,95.26,95.21,,95.23,95.12,94.94,,,94.965,94.85,,94.71,,94.85,94.89,,,,94.65,94.67,94.63,,,94.79,,94.645,94.83,94.8,94.63,,,94.59,94.53,94.47,,,94.18,94.19,94.19,94.18,,,93.97,93.95,,93.97,,,93.91,,93.87,93.85,93.88,,,,,93.63,,,93.47,93.36,93.45,,93.43,93.51,93.505,93.55,93.59,93.58,93.6,93.525,93.52,93.54,,,93.67,,93.515,,93.39,,,,93.235,93.24,,,,,93.41,93.32,93.25,,93.245,93.12,93.1,93.15,93.17,,93.18,93.24,93.245,93.24,,93.21,93.28,93.305,93.365,93.28,93.15,93.175,93.15,93.12,,93.1,,,,92.89,92.84,,92.93,,92.79,,92.84,92.81,92.815,92.83,92.87,,92.76,92.83,,,92.78,,,92.875,,,,92.895,92.84,,,,,92.99,,92.91,,,,,92.945,93.0,,,92.76,,,,92.77,,,,,92.69,,,92.78,,92.935,92.88,,,,,92.815,,,92.65,,,,,,92.625,,,,,,,,,,,,,92.575,92.575,92.63,,,,92.67,,,,,,,,,92.62,92.64,92.79,92.77,92.835,92.82,92.76,,,,,92.81,,92.755,92.75,92.75,92.835,,,,,,,92.765,92.77,92.625,92.625,,92.64,92.61,,,,,,92.59,92.55,92.545,92.525,92.52,92.51,92.57,92.54,92.54,92.59,92.57,92.59,92.65,92.6,92.595,,92.5,,,92.59,92.57,,,,,,,,92.63,,,92.62,92.615,92.675,92.68,,92.67,92.66,92.66,92.57,92.535,,92.53,,92.45,92.415,,92.575,92.46,,,92.65,92.8,,92.82,92.75,,,92.705,92.72,92.71,92.75,92.68,,92.615,92.705,,92.69,92.745,92.82,,92.97,,92.985,,92.84,92.81,92.83,,,,92.75,92.69,92.73,92.725,92.77,,,92.84,92.79,92.81,92.8,92.79,92.73,92.74,92.77,92.835,92.87,92.95,92.92,92.955,92.95,92.98,93.01,92.99,92.94
2019-05-23,90.56,90.24,90.23,89.85,89.32,89.55,,89.1,89.19,88.81,88.65,88.73,,88.17,88.29,88.15,88.45,88.24,88.5,88.57,,88.415,88.71,88.64,,88.41,,88.56,,88.33,88.3,88.39,88.67,88.57,88.51,88.43,88.655,88.5,88.38,88.235,88.22,88.145,88.14,88.05,88.09,88.105,88.04,87.97,88.05,87.72,87.625,87.63,87.59,87.64,87.56,87.495,87.44,87.32,87.48,87.555,87.42,87.54,87.7,87.675,88.085,87.875,,,87.91,87.98,87.945,87.85,87.975,87.84,87.86,87.79,87.915,87.91,87.92,88.08,87.97,88.01,88.1,88.1,88.22,88.185,88.225,88.28,88.18,88.125,,88.02,,88.25,88.37,88.36,88.225,88.37,88.39,,,88.43,88.52,88.55,,88.59,,88.6,88.56,88.43,88.57,88.59,88.505,88.335,88.2,88.43,88.34,88.26,88.145,88.14,88.155,88.03,88.25,88.17,88.12,,,,,88.18,88.05,,88.1,88.125,88.165,88.11,88.065,88.02,88.1,,88.165,88.13,88.13,88.09,,87.975,88.0,88.02,88.0,87.985,88.07,,88.14,88.24,88.305,88.26,88.3,88.205,88.255,88.15,,88.34,,88.31,88.33,88.36,88.28,88.21,88.18,88.165,88.205,,88.03,88.055,88.08,88.13,88.1,88.065,88.13,,,88.13,88.095,88.115,88.165,88.2,88.11,88.13,88.125,88.15,88.11,88.08,88.145,88.09,88.05,88.07,88.16,88.21,88.2,88.23,,,88.315,88.3,88.36,,88.17,88.16,,88.13,88.06,88.065,88.0,88.01,88.01,,,,88.08,,,88.03,88.05,87.94,87.965,87.89,87.865,87.92,87.79,,87.855,,,,,,87.915,,,88.065,,88.04,88.01,,,88.12,,88.16,88.265,88.225,,88.15,,,,88.08,88.04,88.035,88.085,88.025,88.04,88.01,88.0,88.0,87.89,87.87,,87.93,87.98,88.03,88.055,88.06,87.96,,87.92,87.93,,87.97,87.93,87.98,87.92,87.98,87.91,87.9,,87.92,87.95,87.92,,,87.99,88.045,88.17,88.19,88.18,88.17,88.16,88.15,88.16,88.09,88.13,88.08,88.02,,88.09,88.16,88.13,,88.14,88.1,88.1,88.1,88.03,87.94,87.91,87.95,,87.95,,,87.9,87.95,87.96,87.98,88.04,88.04,88.02,88.03,,88.065,,88.08,88.0,,87.97,87.96,,87.955,87.955,87.93,,,87.93,87.89,87.965,,88.055,88.12,88.35,88.255,,88.44,,88.51,88.45,88.43,,88.59,,,88.615,,88.75,88.915,88.87,88.9,88.975,88.95,88.92,88.86,88.73,88.73,88.605,88.61,88.65,88.77,88.7,88.64,88.76,88.66,88.71,88.67,88.65,88.78,88.81,88.77,88.71,88.71,88.7,88.84
2019-05-24,,,,89.925,,,89.615,89.36,89.5,,89.5,,,89.18,89.16,,,89.11,89.0,,,88.85,88.87,88.92,88.9,89.0,89.11,,,89.13,89.15,89.165,89.2,89.33,89.315,89.32,,89.04,,88.93,88.89,89.0,88.97,88.95,88.945,,89.055,89.11,89.11,89.09,89.02,89.11,89.23,89.165,89.115,89.04,89.03,89.11,89.13,89.025,88.98,88.93,88.87,,88.75,88.57,88.53,88.57,,,88.475,88.43,,88.4,88.34,88.365,,88.2,,,,88.045,,,87.96,,87.91,,88.06,88.03,87.95,87.88,87.87,87.91,87.87,87.775,87.745,87.83,87.7,,,87.37,87.29,,87.3,,,,,,87.33,,87.42,87.48,,87.525,87.515,87.52,87.47,87.36,87.54,87.49,87.43,,87.38,,,,87.385,87.355,,87.33,87.4,,87.335,87.33,87.285,,,,,87.25,87.34,,,87.32,,,87.23,87.22,87.175,87.175,87.14,87.155,87.18,,,87.165,87.15,87.12,,,87.09,,,,87.005,86.96,86.88,,86.98,87.0,,87.01,,87.0,,86.96,87.0,87.0,87.0,87.01,87.22,87.235,87.205,87.32,,,,87.36,,87.22,,87.25,87.25,,87.24,87.27,87.285,87.2,,,,,87.21,87.14,87.19,87.17,87.155,87.27,87.27,,87.26,87.26,87.24,,,,87.16,87.17,,87.09,87.165,87.15,,87.195,87.08,87.17,87.15,87.21,87.11,87.1,,87.1,87.105,87.065,87.105,87.07,87.07,87.0,87.055,87.08,,87.07,87.03,,,,,87.085,87.01,,,87.005,,87.01,,,,,,87.015,87.01,87.0,,86.935,,,86.92,87.005,87.0,86.98,87.02,86.99,,86.965,86.97,,86.9,86.96,,86.88,86.81,86.79,86.79,86.805,86.77,,,,86.75,86.75,86.73,86.72,86.755,,,,86.965,86.88,86.9,86.85,,,86.82,86.8,,,86.79,86.75,86.755,86.75,86.745,86.75,86.75,86.77,,,86.92,86.88,86.89,86.905,86.91,,86.87,86.89,86.85,,86.895,86.91,86.96,86.885,,86.945,86.94,86.87,,86.845,,86.895,86.905,87.005,86.96,,87.015,87.09,87.1,87.07,87.02,86.93,86.95,86.99,86.94,86.9,86.89,86.865,86.87,86.86,86.87,86.96,86.93,86.91,86.95,86.935,86.955,86.91,86.97,86.915,86.855,86.91,86.965,86.99,87.02,87.025,87.045,,87.11,87.26,87.23,87.28,87.24,87.24,87.15,87.17,87.225,87.22,87.15,87.21,87.19,87.13
2019-05-28,87.63,87.77,87.745,87.97,87.775,87.69,87.93,87.785,87.785,87.8,87.775,87.71,87.935,87.945,87.64,87.77,87.86,87.91,87.92,88.05,,87.94,,88.015,88.23,,,88.085,,88.16,88.205,88.17,88.15,88.0,87.92,88.07,88.07,,88.15,88.0,87.91,87.79,87.795,87.89,87.85,87.93,87.89,87.82,87.685,87.72,87.75,87.805,87.89,87.81,87.765,87.695,87.67,87.665,87.62,87.665,87.69,87.645,87.645,87.61,87.55,87.445,87.25,87.25,87.25,87.16,,87.23,87.245,87.275,87.23,87.19,87.28,87.405,87.42,87.4,87.42,87.245,87.05,87.04,87.15,87.13,87.175,87.07,87.195,87.155,87.39,87.4,87.535,87.48,87.405,87.525,87.63,87.76,87.73,87.69,87.64,87.615,87.585,87.74,87.73,87.65,,87.675,87.7,,87.71,,,87.705,87.655,87.675,87.61,,87.53,87.41,87.35,87.28,87.32,87.22,87.36,87.42,87.46,,87.49,87.39,87.585,87.57,,87.64,87.63,87.595,,87.555,,,87.42,87.46,87.43,87.33,87.31,87.245,87.27,,87.37,87.37,87.45,87.4,87.415,,87.37,,,87.415,,87.365,,87.355,,87.51,,,,,87.535,87.58,87.66,,87.58,87.61,87.63,87.63,87.67,87.67,,87.61,87.645,87.62,87.51,87.465,,,87.515,,,87.43,,,87.38,,,,87.38,,87.44,87.4,,,,87.42,87.38,87.32,87.35,87.32,,,87.28,,87.48,87.53,87.475,,87.535,,87.56,87.56,,,87.62,87.605,87.57,87.59,,87.72,87.64,87.55,,87.56,87.58,,,,87.55,87.56,,87.59,,87.58,87.56,87.605,87.66,,87.73,87.8,,,87.72,,,,,,87.67,,87.65,87.67,87.74,87.765,87.68,,87.61,87.7,87.635,87.565,87.66,87.69,87.61,,87.545,,87.5,,,87.49,,,87.5,,,87.33,87.405,87.41,87.435,87.42,87.49,,,,87.47,87.45,87.44,87.4,,87.48,,87.43,87.34,87.425,87.41,87.39,87.415,87.33,,87.25,87.28,87.25,87.14,,87.03,87.08,87.03,,87.15,87.205,87.16,87.225,,87.29,,87.35,87.37,,,87.415,,,87.42,,87.375,87.38,87.38,87.46,87.61,87.585,87.5,87.445,87.45,87.45,87.39,87.4,87.44,87.54,,,,87.525,87.455,,87.455,87.47,,87.45,,87.46,87.46,87.395,87.33,87.23,87.315,87.3,87.31,87.28,87.265,87.29,87.29,87.3,87.27,87.37,87.33,87.285,87.23,87.27,87.28,87.28,87.325,,87.3,87.3,87.26,87.25,87.29,87.335,87.25,87.24,87.24,87.19
2019-05-29,,85.93,86.04,85.85,85.62,85.635,85.885,85.97,85.63,85.57,85.6,85.645,85.63,85.605,85.685,85.6,85.57,85.37,85.34,85.37,85.31,,85.33,85.21,85.41,85.37,85.41,85.44,85.43,85.35,85.27,85.19,85.245,85.245,85.365,85.33,,,85.26,85.175,85.34,85.32,85.37,85.55,85.62,,,85.81,85.81,85.75,85.65,85.73,85.7,,85.77,85.705,,85.855,85.89,85.84,85.89,85.85,,,85.68,85.69,85.85,85.77,85.77,,85.78,85.75,85.74,85.78,85.87,85.77,85.78,85.795,85.78,85.82,85.84,,85.64,,85.695,85.71,,,85.71,85.73,85.635,85.71,85.76,85.7,85.62,85.58,85.55,85.63,85.64,85.55,,85.33,,85.39,,,85.04,85.18,85.17,85.14,84.98,84.93,84.825,,84.84,84.885,84.93,,,,84.89,85.05,,84.93,84.97,85.015,84.85,,,84.77,84.67,84.65,,84.41,84.45,84.435,84.525,84.49,84.49,84.54,84.51,84.45,84.325,84.3,,84.36,,,,,84.44,84.45,84.41,84.34,,84.44,84.6,84.53,,,84.66,84.65,84.79,84.79,84.81,,84.915,84.87,,84.88,84.78,84.75,84.7,,84.645,,84.74,84.705,,84.69,,,,84.795,,84.8,,84.77,84.83,84.96,84.93,,,,,85.01,85.075,,,84.9,,,84.87,84.84,84.95,84.92,,84.95,84.95,84.95,85.0,85.02,,,,,,85.29,85.49,85.49,85.6,85.68,,85.56,85.475,85.385,85.42,,85.45,,85.47,,,85.46,85.49,,,,85.69,,85.74,85.78,85.9,,85.88,85.92,,86.0,85.9,,85.91,85.84,,85.77,85.825,85.75,85.75,85.75,85.79,,,,,,,,,85.62,,,85.625,,85.61,85.65,,85.65,,85.75,85.71,85.7,85.65,85.64,85.65,85.53,85.53,85.55,,,,,85.63,85.695,85.69,85.71,,85.68,85.79,85.81,85.82,85.85,,85.76,85.75,,85.83,85.76,,85.84,85.83,85.85,85.79,85.785,85.835,85.77,85.72,85.71,,,,85.755,85.73,85.745,85.71,85.735,,85.76,85.87,85.915,85.94,85.96,85.93,85.89,85.835,85.855,85.855,85.83,85.825,85.825,85.89,85.87,85.87,,85.91,,,86.03,85.97,86.02,86.045,86.1,86.06,86.19,86.17,86.14,86.18,86.215,86.245,86.17,86.15,86.16,86.15,86.13,86.13,86.12,86.22,86.35,86.35,86.33,86.3,86.29,86.36,86.4,86.35,86.44,86.4,86.37,86.35,86.4,86.425,86.52,86.44,86.43,86.5,86.465,86.54,86.53,86.54,86.59,86.6,86.465
2019-05-30,,,86.48,86.33,,86.0,86.07,85.92,85.71,,,85.89,85.945,86.07,86.005,86.0,86.005,,85.97,85.975,85.885,85.91,85.995,86.035,85.98,86.04,86.04,86.08,86.05,86.04,85.82,85.87,85.87,85.91,,85.7,,85.55,85.61,85.63,85.61,85.69,85.74,,85.745,85.735,85.61,85.59,85.425,85.405,,85.37,85.39,85.37,85.35,85.29,85.33,85.37,85.34,85.305,85.34,85.31,85.215,85.23,85.135,85.125,,85.09,85.07,85.075,85.05,84.915,84.91,84.915,,85.02,84.98,85.02,84.95,84.875,84.825,84.785,84.8,84.815,84.895,85.055,85.155,85.29,85.375,85.2,84.83,84.52,84.33,84.32,84.56,84.465,84.3,84.255,84.355,84.44,84.38,84.49,84.62,84.71,84.74,84.57,84.66,84.4,84.4,84.29,84.25,84.22,83.99,,83.895,83.955,83.99,83.97,,83.88,83.87,84.0,83.955,83.99,84.12,84.17,84.225,84.35,84.28,84.33,84.36,84.29,84.34,84.26,84.25,84.185,84.175,84.15,84.13,84.03,83.99,83.92,83.81,83.86,83.88,83.94,83.95,83.95,84.06,84.115,84.14,,84.055,84.03,84.025,84.01,84.145,84.13,84.08,84.02,83.98,84.045,84.05,,84.075,84.1,84.22,,84.39,84.32,84.31,84.28,84.3,84.3,,84.245,84.2,84.25,,84.185,84.16,84.12,84.115,,84.16,84.26,84.25,84.29,84.34,84.3,84.375,84.32,,84.29,84.37,84.37,84.33,84.43,84.445,,84.47,84.45,84.475,84.47,84.46,84.43,84.46,84.43,84.41,84.44,84.39,84.44,,,84.42,84.4,84.35,84.28,84.245,84.22,84.245,84.23,84.2,84.2,84.215,84.19,84.25,84.25,84.22,,84.365,84.365,84.35,84.32,84.365,84.35,84.39,84.37,84.35,84.43,84.415,84.29,84.265,84.22,84.18,84.16,84.13,84.125,84.12,84.125,84.09,84.075,84.17,84.2,84.18,84.14,84.17,84.09,84.14,84.14,84.165,84.23,84.32,84.35,84.385,84.4,84.33,84.37,84.35,84.39,84.33,84.435,84.43,84.44,84.43,84.42,84.4,84.3,,84.26,84.28,84.295,,84.265,84.2,,84.1,84.14,84.11,84.155,84.195,84.11,84.125,84.085,84.09,83.99,84.07,84.1,84.125,84.125,,84.06,84.03,84.03,84.055,,,83.96,83.95,83.95,84.0,84.04,83.97,83.925,83.96,83.93,84.015,84.015,83.98,84.02,84.07,84.03,84.06,84.05,84.08,,84.21,84.16,,84.18,84.15,84.15,84.11,84.14,84.17,84.145,84.01,83.92,83.96,84.01,84.02,84.075,84.115,84.13,84.14,84.03,84.05,84.02,84.05,84.07,84.04,,84.02,84.01,84.0,83.935,83.92,83.955,84.03,83.96,83.92,83.94,84.01,84.01,83.97,84.085,84.1,84.14,84.08,84.08,84.06,84.04,84.055,84.025,84.03,84.04,84.06,84.05,84.015,84.0,84.01,84.01,84.025,84.01,83.945,83.93,83.915,83.86,83.865,83.94
2019-05-31,82.325,82.32,82.695,82.835,82.905,82.785,82.85,82.83,82.795,82.88,82.85,83.0,83.12,83.05,83.09,83.325,83.31,83.37,83.4,83.23,83.13,83.02,,,82.99,83.025,83.01,83.0,83.055,83.195,83.19,83.12,83.17,83.2,83.12,83.12,83.02,83.07,82.995,83.01,83.01,83.02,82.95,82.92,82.85,82.99,83.01,,83.18,83.23,83.25,83.4,,83.605,83.61,83.455,83.47,83.52,83.49,83.55,83.56,83.57,83.52,83.58,83.535,83.57,83.69,83.755,83.71,83.8,83.67,83.6,83.57,83.43,83.395,83.52,83.445,83.42,83.39,,83.61,83.54,83.57,83.65,83.6,83.52,83.45,83.42,83.47,83.38,83.36,83.42,83.4,83.4,83.17,83.065,,83.11,83.16,,83.22,,83.195,83.2,83.06,83.195,83.1,,,83.13,83.09,83.205,83.23,,83.41,,,83.305,83.43,83.44,83.31,83.37,83.35,83.32,83.36,83.375,83.41,83.4,83.32,,83.31,,83.34,83.28,83.25,83.22,83.15,,,83.16,83.17,83.21,83.185,,83.09,83.13,83.22,,83.255,83.33,83.29,83.27,83.235,83.14,,83.08,83.13,83.09,83.11,83.1,83.09,83.09,83.09,83.095,83.09,83.11,83.11,,83.15,,,83.22,83.145,83.075,83.09,83.09,83.045,83.075,83.1,,83.055,83.1,83.05,,83.09,83.055,83.075,,82.97,82.91,82.905,82.93,,,82.92,82.91,,82.93,82.92,82.96,,,82.95,82.91,,82.93,82.84,82.895,82.87,82.855,82.89,,82.94,,82.9,82.91,82.86,82.845,82.86,82.82,,82.92,82.9,82.865,82.83,82.85,,82.84,,,82.79,82.73,82.65,,82.73,82.71,,,82.695,82.695,,,82.71,82.73,82.7,82.715,82.705,82.68,82.7,,,82.57,82.55,82.53,,,82.545,82.535,82.625,,82.54,82.48,,82.49,,82.53,82.57,82.56,,,82.56,82.43,,,82.355,82.37,82.375,,82.35,82.39,82.33,82.31,82.3,,82.265,82.22,82.295,82.25,82.25,,82.23,82.23,82.255,82.23,82.21,82.125,82.15,82.17,82.14,82.125,82.1,82.09,,82.06,82.09,82.11,82.11,82.15,82.14,82.1,82.13,82.19,82.26,82.285,82.29,82.34,82.31,82.3,82.305,82.33,82.37,82.39,82.4,82.49,82.42,82.41,82.46,82.45,82.46,,82.355,82.32,82.345,82.29,82.205,82.13,82.09,82.08,82.06,82.04,81.975,82.02,82.03,82.03,82.01,82.01,81.99,81.985,81.99,81.95,82.06,,81.985,81.95,81.99,81.95,81.99,81.905,81.855,81.98,,81.97,81.96,82.0,81.97,81.91,81.93,81.92,81.885,81.89,81.91,81.915,81.935,81.955,81.93,81.935,81.945,82.015,82.075,82.03,82.01,81.915,81.94,81.935,81.92,81.93,81.925,81.94,81.935,81.87
