,09:30,09:31,09:32,09:33,09:34,09:35,09:36,09:37,09:38,09:39,09:40,09:41,09:42,09:43,09:44,09:45,09:46,09:47,09:48,09:49,09:50,09:51,09:52,09:53,09:54,09:55,09:56,09:57,09:58,09:59,10:00,10:01,10:02,10:03,10:04,10:05,10:06,10:07,10:08,10:09,10:10,10:11,10:12,10:13,10:14,10:15,10:16,10:17,10:18,10:19,10:20,10:21,10:22,10:23,10:24,10:25,10:26,10:27,10:28,10:29,10:30,10:31,10:32,10:33,10:34,10:35,10:36,10:37,10:38,10:39,10:40,10:41,10:42,10:43,10:44,10:45,10:46,10:47,10:48,10:49,10:50,10:51,10:52,10:53,10:54,10:55,10:56,10:57,10:58,10:59,11:00,11:01,11:02,11:03,11:04,11:05,11:06,11:07,11:08,11:09,11:10,11:11,11:12,11:13,11:14,11:15,11:16,11:17,11:18,11:19,11:20,11:21,11:22,11:23,11:24,11:25,11:26,11:27,11:28,11:29,11:30,11:31,11:32,11:33,11:34,11:35,11:36,11:37,11:38,11:39,11:40,11:41,11:42,11:43,11:44,11:45,11:46,11:47,11:48,11:49,11:50,11:51,11:52,11:53,11:54,11:55,11:56,11:57,11:58,11:59,12:00,12:01,12:02,12:03,12:04,12:05,12:06,12:07,12:08,12:09,12:10,12:11,12:12,12:13,12:14,12:15,12:16,12:17,12:18,12:19,12:20,12:21,12:22,12:23,12:24,12:25,12:26,12:27,12:28,12:29,12:30,12:31,12:32,12:33,12:34,12:35,12:36,12:37,12:38,12:39,12:40,12:41,12:42,12:43,12:44,12:45,12:46,12:47,12:48,12:49,12:50,12:51,12:52,12:53,12:54,12:55,12:56,12:57,12:58,12:59,13:00,13:01,13:02,13:03,13:04,13:05,13:06,13:07,13:08,13:09,13:10,13:11,13:12,13:13,13:14,13:15,13:16,13:17,13:18,13:19,13:20,13:21,13:22,13:23,13:24,13:25,13:26,13:27,13:28,13:29,13:30,13:31,13:32,13:33,13:34,13:35,13:36,13:37,13:38,13:39,13:40,13:41,13:42,13:43,13:44,13:45,13:46,13:47,13:48,13:49,13:50,13:51,13:52,13:53,13:54,13:55,13:56,13:57,13:58,13:59,14:00,14:01,14:02,14:03,14:04,14:05,14:06,14:07,14:08,14:09,14:10,14:11,14:12,14:13,14:14,14:15,14:16,14:17,14:18,14:19,14:20,14:21,14:22,14:23,14:24,14:25,14:26,14:27,14:28,14:29,14:30,14:31,14:32,14:33,14:34,14:35,14:36,14:37,14:38,14:39,14:40,14:41,14:42,14:43,14:44,14:45,14:46,14:47,14:48,14:49,14:50,14:51,14:52,14:53,14:54,14:55,14:56,14:57,14:58,14:59,15:00,15:01,15:02,15:03,15:04,15:05,15:06,15:07,15:08,15:09,15:10,15:11,15:12,15:13,15:14,15:15,15:16,15:17,15:18,15:19,15:20,15:21,15:22,15:23,15:24,15:25,15:26,15:27,15:28,15:29,15:30,15:31,15:32,15:33,15:34,15:35,15:36,15:37,15:38,15:39,15:40,15:41,15:42,15:43,15:44,15:45,15:46,15:47,15:48,15:49,15:50,15:51,15:52,15:53,15:54,15:55,15:56,15:57,15:58,15:59
2019-04-01,96.09,96.11,95.76,95.84,95.88,95.97,96.25,96.17,96.1,96.28,96.18,96.22,96.25,95.97,95.98,95.78,95.82,95.82,95.8,95.79,95.8,95.96,96.11,96.3,96.17,95.99,96.01,95.97,95.93,95.815,96.06,96.165,96.18,96.315,96.44,96.46,96.355,96.41,96.27,96.21,96.1,96.123,96.234,96.14,96.13,96.14,96.13,96.11,96.04,96.11,96.1,96.13,96.15,96.095,96.025,96.06,96.014,95.97,95.99,96.125,96.12,96.13,96.06,96.12,96.08,96.09,96.26,96.39,96.455,96.37,96.29,96.25,96.21,96.24,96.24,96.22,96.28,96.33,96.33,96.47,96.38,96.375,96.39,96.37,96.325,96.39,96.53,96.544,96.434,96.48,96.53,96.64,96.67,96.78,96.67,96.63,96.605,96.5,96.4,96.48,96.54,96.59,96.585,96.57,96.61,96.51,96.6,96.551,96.62,96.57,96.5,96.37,96.33,96.33,96.321,96.38,96.43,96.37,96.34,96.41,96.39,96.34,96.21,96.22,96.26,96.3,96.12,96.19,96.12,96.1,96.13,96.07,95.97,95.88,95.98,95.97,95.97,96.1,96.07,96.08,96.08,96.06,96.12,96.251,96.23,96.14,96.25,96.27,96.38,96.317,96.27,96.23,96.27,96.27,96.34,96.26,96.248,96.24,96.2,96.19,96.19,96.26,96.2,96.25,96.224,96.29,96.28,96.3,96.26,96.24,96.3,96.35,96.33,96.48,96.47,96.4,96.43,96.39,96.44,96.43,96.47,96.47,96.46,96.45,96.5,96.49,96.52,96.46,96.48,96.56,96.51,96.538,96.46,96.5,96.54,96.58,96.566,96.65,96.64,96.59,96.55,96.62,96.57,96.69,96.64,96.55,96.53,96.65,96.72,96.75,96.68,96.67,96.68,96.691,96.75,96.69,96.675,96.68,96.75,96.81,96.79,96.78,96.735,96.792,96.76,96.8,96.76,96.7,96.7,96.72,96.64,96.63,96.69,96.72,96.7,96.71,96.7,96.75,96.77,96.79,96.82,96.81,96.85,96.91,96.85,96.88,96.83,96.75,96.77,96.78,96.83,96.84,96.81,96.78,96.8,96.83,96.88,96.84,96.85,96.88,96.89,96.93,96.99,96.96,96.95,96.905,96.91,96.92,96.93,96.92,96.94,96.95,96.86,96.86,96.86,96.9,96.88,96.88,96.96,97.0,97.04,97.09,97.03,97.005,97.05,97.1,97.105,97.09,97.08,97.15,97.04,96.99,97.0,97.01,97.0,96.9,96.88,96.86,96.83,96.84,96.87,96.86,96.9,96.866,96.92,96.98,96.96,97.02,97.0,97.01,97.0,96.93,96.88,96.89,96.87,96.87,96.84,96.82,96.86,96.92,96.9,96.88,96.82,96.81,96.81,96.86,96.88,96.95,96.89,96.91,96.92,96.93,96.93,96.9,96.91,96.84,96.86,96.815,96.82,96.84,96.82,96.76,96.73,96.78,96.76,96.73,96.82,96.84,96.89,96.82,96.87,96.9,96.89,96.89,96.97,96.88,96.79,96.87,96.89,96.8,96.79,96.77,96.8,96.785,96.745,96.75,96.8,96.9,96.84,96.8,96.84,96.9,96.92,96.96,96.995,96.91,96.9,96.93,96.915,96.95,96.915,96.92,96.99,96.96,96.935,96.995,97.04,97.01,97.05,96.95
2019-04-02,97.24,97.31,97.28,97.3,97.16,97.18,97.255,97.29,97.4,97.45,97.29,97.05,97.11,97.085,97.29,97.08,97.02,97.015,97.01,96.96,96.908,96.87,96.925,96.965,97.05,97.04,97.27,97.31,97.34,97.47,97.67,97.525,97.68,97.56,97.57,97.69,97.53,97.53,97.6,97.46,97.45,97.33,97.27,97.37,97.51,97.55,97.45,97.53,97.564,97.6,97.65,97.69,97.685,97.67,97.525,97.495,97.355,97.5,97.38,97.48,97.4,97.48,97.45,97.43,97.49,97.44,97.44,97.34,97.22,97.12,97.06,97.2,97.16,97.17,97.19,97.025,96.92,97.0,97.08,96.92,96.98,96.923,96.91,96.94,96.82,96.82,96.69,96.675,96.71,96.56,96.655,96.47,96.395,96.37,96.58,96.61,96.52,96.54,96.56,96.565,96.57,96.57,96.604,96.41,96.25,96.19,96.38,96.49,96.46,96.51,96.515,96.6,96.65,96.73,96.685,96.64,96.65,96.56,96.57,96.71,96.72,96.613,96.62,96.61,96.765,96.71,96.59,96.52,96.475,96.505,96.585,96.71,96.65,96.72,96.68,96.68,96.68,96.65,96.61,96.57,96.73,96.76,96.83,96.84,96.89,96.92,96.79,96.85,96.93,96.85,96.85,96.82,96.87,96.81,96.889,96.9,96.88,96.88,96.89,96.88,96.785,96.85,96.79,96.74,96.71,96.71,96.63,96.66,96.66,96.66,96.65,96.63,96.7,96.695,96.63,96.64,96.59,96.45,96.435,96.495,96.46,96.45,96.43,96.45,96.49,96.49,96.57,96.52,96.54,96.57,96.53,96.52,96.54,96.57,96.57,96.5,96.46,96.39,96.39,96.41,96.45,96.42,96.39,96.43,96.532,96.48,96.49,96.45,96.53,96.52,96.47,96.46,96.45,96.43,96.41,96.43,96.48,96.509,96.69,96.67,96.6,96.62,96.6,96.6,96.6,96.59,96.55,96.53,96.561,96.632,96.58,96.64,96.6,96.54,96.58,96.54,96.52,96.51,96.47,96.49,96.47,96.45,96.43,96.39,96.47,96.52,96.53,96.53,96.52,96.505,96.5,96.46,96.47,96.41,96.39,96.41,96.37,96.31,96.28,96.245,96.21,96.25,96.31,96.29,96.37,96.44,96.39,96.34,96.33,96.346,96.36,96.39,96.365,96.441,96.52,96.49,96.53,96.5,96.48,96.44,96.45,96.48,96.47,96.43,96.4,96.34,96.35,96.35,96.31,96.29,96.265,96.245,96.15,96.19,96.27,96.24,96.26,96.21,96.295,96.28,96.3,96.27,96.34,96.28,96.28,96.3,96.295,96.265,96.26,96.29,96.33,96.355,96.335,96.33,96.32,96.35,96.34,96.29,96.245,96.22,96.23,96.241,96.19,96.11,96.03,96.05,96.07,96.13,96.19,96.215,96.21,96.28,96.29,96.28,96.32,96.32,96.295,96.28,96.22,96.19,96.24,96.26,96.23,96.29,96.31,96.31,96.23,96.25,96.3,96.28,96.24,96.16,96.155,96.25,96.245,96.17,96.18,96.13,96.15,96.15,96.22,96.21,96.22,96.25,96.26,96.255,96.3,96.35,96.37,96.34,96.335,96.36,96.37,96.36,96.26,96.28,96.32,96.34,96.345,96.3,96.31,96.3,96.25,96.26,96.305,96.21,96.185,96.19,96.15,96.05
2019-04-03,96.35,96.266,96.21,95.95,95.93,96.219,96.38,96.335,96.19,96.07,96.005,95.94,96.095,96.14,96.095,96.18,96.24,96.19,96.01,96.125,96.145,96.01,95.96,95.93,95.96,96.012,95.82,95.83,95.85,95.78,95.66,95.574,95.56,95.44,95.4,95.485,95.414,95.57,95.64,95.705,95.86,95.89,95.855,95.86,95.8,95.93,96.08,96.13,96.07,96.065,96.13,96.04,96.04,96.1,96.03,96.03,95.87,95.855,95.86,95.845,95.56,95.66,95.5,95.64,95.68,95.63,95.55,95.59,95.635,95.64,95.92,95.99,95.95,95.95,95.91,96.07,96.0,96.035,95.987,95.98,96.032,96.02,96.18,96.16,96.248,96.22,96.073,96.07,96.147,96.037,95.975,96.155,96.18,96.23,96.25,96.29,96.13,96.05,96.11,96.0,96.09,95.95,95.78,95.84,95.83,95.74,95.7,95.66,95.72,95.66,95.54,95.554,95.58,95.54,95.48,95.464,95.38,95.39,95.43,95.405,95.46,95.421,95.47,95.42,95.34,95.38,95.347,95.27,95.26,95.285,95.33,95.27,95.22,95.16,95.18,95.225,95.13,95.126,95.2,95.24,95.295,95.31,95.41,95.26,95.42,95.42,95.44,95.49,95.41,95.35,95.425,95.5,95.42,95.485,95.49,95.5,95.5,95.53,95.67,95.61,95.52,95.485,95.35,95.32,95.335,95.42,95.43,95.47,95.46,95.43,95.38,95.385,95.35,95.41,95.475,95.46,95.35,95.39,95.29,95.28,95.35,95.305,95.34,95.23,95.11,95.14,95.135,95.09,95.14,95.19,95.2,95.21,95.11,95.05,94.96,94.88,94.89,94.93,94.86,94.845,94.865,94.9,94.83,94.82,94.79,94.73,94.79,94.75,94.71,94.64,94.64,94.668,94.76,94.78,94.735,94.71,94.73,94.68,94.67,94.78,94.81,94.727,94.68,94.63,94.615,94.585,94.565,94.52,94.56,94.5,94.55,94.52,94.62,94.62,94.58,94.55,94.54,94.558,94.58,94.53,94.56,94.5,94.52,94.57,94.57,94.52,94.5,94.57,94.49,94.51,94.42,94.37,94.35,94.355,94.39,94.37,94.34,94.35,94.36,94.29,94.31,94.26,94.21,94.26,94.25,94.21,94.17,94.03,94.101,94.115,94.15,94.1,94.025,93.97,94.0,94.01,93.96,93.93,93.9,93.96,93.92,93.94,93.85,93.82,93.79,93.86,93.83,93.87,93.815,93.79,93.84,93.94,93.93,94.0,94.045,94.04,94.09,94.11,94.205,94.215,94.17,94.22,94.22,94.2,94.17,94.17,94.26,94.26,94.3,94.22,94.23,94.29,94.21,94.14,94.16,94.22,94.19,94.2,94.19,94.22,94.23,94.29,94.35,94.39,94.38,94.32,94.375,94.32,94.34,94.32,94.3,94.355,94.34,94.335,94.34,94.36,94.36,94.32,94.3,94.24,94.24,94.17,94.13,94.19,94.2,94.13,94.16,94.23,94.23,94.24,94.14,94.16,94.25,94.11,94.23,94.2,94.27,94.33,94.38,94.4,94.34,94.365,94.35,94.35,94.355,94.27,94.355,94.34,94.31,94.3,94.3,94.34,94.37,94.37,94.38,94.355,94.32,94.305,94.285,94.33,94.32,94.28,94.16,94.0,93.995,93.995,93.99,93.89,93.86,93.96
2019-04-04,94.18,93.76,93.917,94.06,94.125,94.48,94.26,94.22,94.3,94.43,94.385,94.31,94.27,94.19,93.99,94.02,93.8,93.78,93.75,93.64,93.83,93.84,93.89,93.96,93.87,93.82,93.67,93.62,93.64,93.57,93.58,93.66,93.59,93.64,93.55,93.53,93.53,93.56,93.57,93.47,93.48,93.46,93.53,93.5,93.418,93.37,93.49,93.495,93.55,93.5,93.55,93.625,93.635,93.615,93.545,93.454,93.55,93.5,93.51,93.28,93.29,93.3,93.25,93.23,93.14,93.04,93.1,93.04,93.052,93.01,92.96,92.98,92.97,93.0,93.2,93.28,93.25,93.209,93.32,93.33,93.29,93.27,93.215,93.18,93.175,93.13,93.04,93.1,93.07,93.077,92.985,93.02,93.02,93.13,93.18,93.17,93.275,93.23,93.27,93.22,93.23,93.36,93.38,93.33,93.41,93.35,93.26,93.2,93.22,93.16,92.97,93.035,93.07,93.065,93.16,93.3,93.33,93.37,93.38,93.34,93.25,93.205,93.2,93.31,93.28,93.33,93.5,93.62,93.58,93.68,93.58,93.6,93.67,93.65,93.57,93.71,93.765,93.77,93.7,93.69,93.75,93.64,93.72,93.7,93.7,93.73,93.67,93.69,93.73,93.745,93.79,93.735,93.71,93.71,93.71,93.69,93.73,93.715,93.64,93.63,93.565,93.54,93.52,93.46,93.35,93.32,93.27,93.24,93.24,93.37,93.5,93.48,93.62,93.58,93.49,93.53,93.49,93.505,93.54,93.56,93.48,93.53,93.49,93.46,93.45,93.58,93.55,93.47,93.49,93.49,93.49,93.42,93.51,93.51,93.57,93.51,93.49,93.51,93.49,93.628,93.57,93.6,93.6,93.64,93.67,93.68,93.65,93.7,93.63,93.61,93.61,93.585,93.535,93.45,93.4,93.495,93.47,93.48,93.507,93.48,93.44,93.51,93.52,93.49,93.45,93.48,93.49,93.5,93.57,93.62,93.61,93.56,93.56,93.575,93.575,93.54,93.55,93.59,93.58,93.595,93.58,93.64,93.683,93.604,93.62,93.63,93.71,93.68,93.66,93.66,93.61,93.64,93.61,93.55,93.61,93.63,93.63,93.65,93.47,93.45,93.57,93.61,93.59,93.75,93.745,93.68,93.605,93.755,93.66,93.625,93.6,93.63,93.61,93.6,93.6,93.61,93.65,93.65,93.63,93.79,93.695,93.675,93.61,93.66,93.66,93.66,93.7,93.65,93.66,93.69,93.64,93.67,93.66,93.65,93.57,93.5,93.58,93.6,93.48,93.5,93.45,93.53,93.64,93.655,93.64,93.69,93.67,93.69,93.695,93.67,93.69,93.66,93.56,93.53,93.48,93.51,93.45,93.43,93.38,93.38,93.31,93.307,93.37,93.41,93.44,93.41,93.43,93.39,93.31,93.38,93.48,93.425,93.37,93.36,93.36,93.5,93.4,93.38,93.315,93.39,93.45,93.52,93.515,93.48,93.41,93.48,93.53,93.53,93.47,93.48,93.49,93.45,93.41,93.5,93.54,93.45,93.465,93.4,93.4,93.42,93.41,93.41,93.42,93.48,93.47,93.5,93.52,93.57,93.54,93.51,93.55,93.545,93.45,93.47,93.49,93.555,93.63,93.65,93.62,93.54,93.63,93.595,93.6,93.65,93.56,93.6,93.61,93.61,93.59,93.65
2019-04-05,94.41,94.68,94.91,94.615,94.62,94.525,94.65,94.59,94.73,94.62,94.55,94.65,94.5,94.71,94.68,94.84,95.15,95.135,95.29,95.37,95.39,95.53,95.36,95.35,95.27,95.21,95.23,95.39,95.53,95.55,95.51,95.59,95.7,95.75,95.78,96.0,96.02,96.085,96.205,96.24,96.15,96.25,96.265,96.27,96.3,96.34,96.315,96.38,96.44,96.42,96.58,96.55,96.58,96.58,96.55,96.61,96.63,96.49,96.37,96.445,96.4,96.54,96.63,96.62,96.61,96.56,96.665,96.725,96.64,96.61,96.57,96.575,96.58,96.64,96.72,96.77,96.79,96.865,96.905,96.83,96.9,96.925,97.045,97.06,97.06,97.12,97.115,96.95,97.095,97.02,97.1,97.105,97.12,97.035,96.915,96.93,97.044,97.115,97.18,97.15,97.13,97.23,97.35,97.46,97.42,97.375,97.46,97.47,97.43,97.43,97.69,97.6,97.61,97.57,97.53,97.34,97.18,97.065,97.09,97.09,97.06,96.99,96.95,96.86,96.81,96.85,96.978,96.97,96.99,96.88,97.0,97.09,97.07,97.1,97.17,97.162,97.155,97.155,97.1,97.1,97.05,97.07,97.1,97.19,97.23,97.22,97.11,97.11,97.09,97.09,97.14,97.185,97.1,97.06,97.1,97.1,97.09,97.08,97.11,97.12,97.13,97.185,97.16,97.18,97.145,97.22,97.195,97.19,97.2,97.195,97.25,97.265,97.16,97.23,97.27,97.31,97.305,97.35,97.37,97.39,97.44,97.39,97.335,97.325,97.43,97.36,97.33,97.26,97.2,97.155,97.19,97.19,97.23,97.27,97.27,97.38,97.405,97.5,97.42,97.42,97.49,97.56,97.56,97.62,97.6,97.66,97.71,97.76,97.78,97.84,97.85,97.85,97.89,97.92,97.91,97.925,97.92,97.935,98.05,98.025,98.08,98.02,98.04,98.035,98.06,98.035,98.05,98.09,98.09,98.105,98.11,98.192,98.3,98.24,98.19,98.17,98.167,98.24,98.19,98.17,98.17,98.17,98.08,98.05,98.13,98.13,98.12,98.23,98.278,98.35,98.31,98.294,98.25,98.25,98.15,98.17,98.207,98.16,98.16,98.225,98.21,98.26,98.24,98.28,98.24,98.245,98.287,98.345,98.325,98.42,98.39,98.42,98.39,98.42,98.48,98.51,98.49,98.3,98.29,98.254,98.25,98.215,98.28,98.32,98.3,98.43,98.5,98.515,98.44,98.38,98.33,98.275,98.29,98.32,98.25,98.24,98.25,98.32,98.39,98.419,98.37,98.41,98.35,98.295,98.375,98.34,98.26,98.25,98.26,98.375,98.34,98.42,98.435,98.37,98.35,98.24,98.25,98.23,98.214,98.2,98.18,98.19,98.21,98.2,98.13,98.15,98.228,98.28,98.32,98.36,98.375,98.46,98.45,98.47,98.57,98.63,98.4,98.41,98.395,98.38,98.385,98.42,98.44,98.42,98.45,98.42,98.42,98.46,98.4,98.43,98.45,98.54,98.41,98.45,98.43,98.41,98.4,98.45,98.45,98.44,98.44,98.54,98.5,98.59,98.57,98.47,98.415,98.44,98.46,98.475,98.535,98.53,98.494,98.415,98.46,98.48,98.52,98.52,98.47,98.48,98.42,98.41,98.445,98.46,98.52,98.585,98.64,98.655,98.65,98.64
2019-04-08,99.35,99.66,99.765,99.98,99.916,99.66,99.75,99.584,99.46,99.584,100.01,100.075,100.5,100.35,100.35,100.64,100.86,100.89,100.92,100.76,100.82,100.89,100.735,100.75,100.63,100.325,100.32,100.21,100.17,100.1,100.12,100.12,100.1,100.19,99.975,100.055,100.094,100.02,100.01,100.03,100.1,100.034,99.99,100.025,100.085,100.12,100.24,100.43,100.59,100.555,100.425,100.37,100.335,100.375,100.425,100.37,100.25,100.37,100.37,100.26,100.15,100.15,100.12,100.16,100.07,100.18,100.26,100.28,100.33,100.325,100.33,100.36,100.32,100.3,100.19,100.1,100.1,100.1,100.22,100.105,100.23,100.21,100.28,100.27,100.285,100.25,100.16,100.14,100.15,100.18,100.19,100.125,99.99,100.0,100.0,99.98,99.95,100.0,100.0,99.98,99.94,99.87,99.77,99.77,99.62,99.64,99.52,99.35,99.29,99.16,99.12,99.2,99.26,99.19,99.16,99.2,99.25,99.25,99.36,99.275,99.529,99.5,99.52,99.56,99.54,99.46,99.43,99.48,99.51,99.41,99.43,99.37,99.45,99.39,99.43,99.41,99.43,99.47,99.51,99.55,99.478,99.41,99.46,99.45,99.5,99.417,99.41,99.48,99.44,99.35,99.355,99.4,99.28,99.27,99.295,99.31,99.34,99.24,99.15,99.215,99.15,99.18,99.16,99.105,99.16,99.21,99.31,99.33,99.345,99.41,99.33,99.33,99.325,99.34,99.355,99.4,99.44,99.41,99.43,99.385,99.39,99.25,99.26,99.16,99.17,99.225,99.24,99.29,99.35,99.32,99.44,99.47,99.455,99.46,99.56,99.52,99.53,99.515,99.495,99.43,99.5,99.45,99.49,99.555,99.5,99.58,99.61,99.63,99.66,99.5,99.48,99.49,99.46,99.49,99.44,99.41,99.42,99.44,99.44,99.46,99.48,99.49,99.49,99.43,99.43,99.284,99.37,99.36,99.44,99.34,99.37,99.33,99.34,99.43,99.38,99.4,99.413,99.43,99.395,99.36,99.295,99.37,99.38,99.36,99.37,99.3,99.34,99.4,99.425,99.415,99.5,99.47,99.42,99.435,99.44,99.48,99.485,99.505,99.43,99.49,99.53,99.37,99.48,99.51,99.53,99.45,99.45,99.53,99.51,99.52,99.505,99.43,99.41,99.48,99.42,99.46,99.325,99.39,99.35,99.35,99.355,99.3,99.34,99.34,99.32,99.28,99.31,99.3,99.29,99.33,99.3,99.295,99.28,99.245,99.28,99.3,99.31,99.28,99.32,99.265,99.275,99.263,99.31,99.42,99.37,99.395,99.385,99.36,99.415,99.36,99.28,99.24,99.29,99.29,99.24,99.3,99.265,99.3,99.275,99.303,99.31,99.37,99.36,99.48,99.435,99.42,99.46,99.43,99.4,99.42,99.33,99.285,99.315,99.372,99.32,99.319,99.3,99.245,99.283,99.32,99.32,99.38,99.395,99.36,99.3,99.3,99.36,99.34,99.38,99.42,99.491,99.465,99.465,99.431,99.38,99.375,99.4,99.42,99.37,99.39,99.36,99.43,99.41,99.408,99.32,99.39,99.43,99.49,99.47,99.43,99.36,99.39,99.38,99.39,99.33,99.38,99.39,99.36,99.41,99.35,99.39,99.4,99.36,99.38,99.36,99.3,99.28,99.25,99.35,99.43
2019-04-09,98.77,98.5,98.44,98.19,97.995,97.71,97.61,97.635,97.78,97.85,97.93,97.68,97.85,97.93,97.98,97.96,98.13,98.15,98.06,98.15,98.25,98.22,98.265,98.14,98.36,98.28,98.24,98.355,98.255,98.15,98.115,98.045,97.9,97.74,97.69,97.67,97.754,97.77,97.82,97.69,97.73,97.81,97.73,97.76,97.655,97.77,97.615,97.67,97.59,97.62,97.59,97.67,97.68,97.655,97.89,97.98,98.03,97.97,98.04,98.0,97.86,97.86,97.8,97.86,97.89,97.96,98.02,98.075,97.929,97.89,97.85,97.725,97.67,97.67,97.61,97.66,97.59,97.68,97.54,97.46,97.44,97.48,97.54,97.485,97.58,97.569,97.57,97.51,97.65,97.76,97.67,97.6,97.64,97.74,97.76,97.745,97.85,97.8,97.71,97.64,97.645,97.55,97.54,97.55,97.65,97.78,97.75,97.74,97.72,97.63,97.71,97.75,97.75,97.67,97.6,97.67,97.68,97.71,97.75,97.73,97.835,98.07,98.075,98.0,97.92,98.02,98.06,98.02,98.044,98.12,98.085,98.127,98.26,98.28,98.21,98.28,98.315,98.34,98.35,98.41,98.48,98.57,98.55,98.612,98.71,98.68,98.6,98.66,98.66,98.69,98.75,98.82,98.79,98.83,98.88,98.83,98.835,98.89,98.97,99.02,99.02,99.01,99.02,99.14,99.15,99.27,99.12,99.24,99.23,99.23,99.24,99.23,99.2,99.19,99.27,99.34,99.36,99.35,99.35,99.28,99.38,99.33,99.34,99.38,99.41,99.39,99.34,99.37,99.384,99.4,99.45,99.43,99.52,99.57,99.48,99.45,99.499,99.43,99.4,99.36,99.252,99.16,99.16,99.13,99.13,99.07,99.135,99.09,99.02,98.95,98.95,98.965,99.03,98.979,98.95,98.97,98.92,99.0,99.03,99.03,99.05,99.04,98.99,98.99,98.992,98.96,98.975,99.0,98.92,98.935,98.885,98.89,98.89,98.85,98.88,98.892,98.83,98.88,98.84,98.82,98.76,98.7,98.67,98.655,98.66,98.65,98.68,98.71,98.8,98.85,98.91,98.97,98.93,98.88,98.93,98.89,98.94,98.93,98.93,98.89,98.89,98.88,98.87,98.875,98.84,98.85,98.86,98.873,98.88,98.91,98.82,98.85,98.81,98.79,98.81,98.8,98.79,98.74,98.72,98.7,98.62,98.663,98.567,98.6,98.65,98.73,98.748,98.73,98.71,98.719,98.71,98.73,98.71,98.692,98.66,98.69,98.7,98.801,98.79,98.77,98.8,98.755,98.73,98.71,98.69,98.67,98.68,98.67,98.74,98.67,98.69,98.63,98.6,98.62,98.57,98.51,98.46,98.42,98.44,98.51,98.54,98.52,98.42,98.58,98.55,98.49,98.5,98.43,98.38,98.37,98.5,98.54,98.49,98.5,98.55,98.49,98.48,98.46,98.52,98.5,98.506,98.5,98.53,98.565,98.54,98.55,98.5,98.45,98.435,98.38,98.281,98.34,98.333,98.37,98.35,98.27,98.23,98.28,98.4,98.36,98.47,98.43,98.48,98.487,98.52,98.57,98.55,98.5,98.52,98.575,98.59,98.62,98.59,98.6,98.54,98.655,98.644,98.7,98.67,98.67,98.67,98.67,98.63,98.68,98.57,98.51,98.49,98.45,98.53,98.62
2019-04-10,99.34,99.31,99.23,99.79,99.68,99.87,100.0,99.96,99.62,99.43,99.64,99.78,99.66,99.73,99.49,99.65,99.715,99.82,99.735,99.8,99.73,99.49,99.53,99.625,99.535,99.53,99.38,99.45,99.54,99.4,99.3,99.48,99.34,99.23,99.25,99.3,99.255,99.11,99.14,99.15,99.15,99.18,99.25,99.22,99.09,99.17,99.0,99.05,99.11,99.13,99.17,99.08,99.07,99.02,98.97,98.9,98.984,98.895,98.935,99.0,99.05,99.08,98.92,98.94,98.91,98.999,98.88,98.84,98.83,98.869,98.98,99.01,99.05,98.86,98.83,98.84,98.79,98.87,98.84,98.79,98.785,98.765,98.8,98.87,98.785,98.895,98.92,98.82,98.81,98.85,98.85,98.87,98.93,98.99,98.93,98.96,99.035,98.98,99.01,98.95,98.92,98.95,98.85,98.8,98.83,98.92,98.87,98.85,98.76,98.78,98.805,98.85,98.8,98.78,98.9,98.94,98.88,98.85,98.87,98.85,98.94,98.92,98.96,99.0,99.035,98.99,98.96,98.88,98.82,98.8,98.83,98.79,98.89,98.845,98.84,98.88,98.945,98.95,98.92,98.87,98.855,98.83,98.9,98.92,99.01,99.08,99.01,99.04,99.025,99.11,99.14,99.148,99.15,99.21,99.195,99.25,99.26,99.42,99.39,99.367,99.385,99.43,99.44,99.34,99.2,99.23,99.34,99.37,99.395,99.425,99.58,99.55,99.5,99.54,99.5,99.51,99.47,99.45,99.39,99.33,99.31,99.23,99.31,99.33,99.29,99.32,99.398,99.42,99.46,99.405,99.42,99.36,99.34,99.38,99.335,99.31,99.3,99.271,99.22,99.26,99.24,99.255,99.3,99.24,99.233,99.26,99.22,99.2,99.18,99.18,99.18,99.165,99.16,99.14,99.14,99.17,99.14,99.11,99.08,99.18,99.21,99.21,99.15,99.11,99.2,99.13,99.1,99.09,99.14,99.165,99.16,99.12,99.1,99.11,99.1,99.11,99.055,98.96,98.95,98.985,99.01,98.95,98.93,98.95,98.96,98.93,98.889,98.85,98.9,98.92,98.9,98.89,98.91,98.915,98.96,98.935,98.86,98.9,98.93,98.885,98.91,98.86,98.85,98.865,98.81,98.82,98.835,98.85,98.82,98.83,98.79,98.85,98.8,98.77,98.75,98.74,98.73,98.79,98.72,98.72,98.74,98.66,98.66,98.66,98.61,98.63,98.605,98.63,98.58,98.47,98.636,98.58,98.47,98.5,98.49,98.54,98.52,98.49,98.5,98.51,98.54,98.51,98.46,98.5,98.474,98.5,98.58,98.6,98.62,98.675,98.705,98.74,98.72,98.75,98.68,98.73,98.75,98.76,98.74,98.75,98.69,98.73,98.69,98.66,98.67,98.74,98.77,98.73,98.72,98.71,98.77,98.85,98.9,98.93,98.995,98.965,98.95,98.94,98.95,98.974,98.85,98.895,98.86,98.85,98.82,98.84,98.81,98.78,98.74,98.64,98.615,98.62,98.7,98.67,98.69,98.72,98.685,98.78,98.82,98.81,98.785,98.81,98.895,98.845,98.81,98.79,98.755,98.745,98.75,98.714,98.73,98.735,98.66,98.63,98.605,98.63,98.6,98.57,98.58,98.56,98.58,98.52,98.48,98.475,98.42,98.48,98.58,98.62,98.65,98.77
2019-04-11,98.3,98.28,98.165,98.08,97.98,98.0,98.08,98.12,98.14,98.12,98.02,97.94,98.08,98.11,98.27,98.57,98.94,98.85,98.94,98.97,99.01,99.03,98.94,99.004,98.95,98.95,98.87,99.02,99.005,99.14,99.29,99.25,99.46,99.32,99.345,99.33,99.19,99.21,99.19,99.18,99.17,99.2,99.21,99.31,99.32,99.42,99.42,99.46,99.43,99.53,99.64,99.74,99.64,99.7,99.63,99.62,99.44,99.46,99.4,99.36,99.38,99.44,99.41,99.45,99.46,99.48,99.43,99.53,99.555,99.54,99.555,99.47,99.44,99.44,99.47,99.45,99.46,99.35,99.24,99.28,99.3,99.27,99.28,99.25,99.1,98.967,99.04,99.1,98.98,98.95,98.85,98.84,98.701,98.695,98.69,98.61,98.62,98.81,98.85,98.89,98.77,98.82,98.93,99.04,99.11,99.11,99.05,99.01,98.825,98.77,98.77,98.73,98.68,98.58,98.605,98.64,98.69,98.624,98.59,98.64,98.5,98.625,98.448,98.48,98.55,98.595,98.39,98.475,98.45,98.32,97.95,98.11,98.11,98.06,98.115,98.19,98.16,98.19,98.25,98.25,98.28,98.08,97.98,97.97,98.07,98.1,98.16,98.15,98.1,98.035,97.97,97.98,98.07,98.03,97.98,97.99,98.08,98.155,98.04,97.99,98.075,98.035,98.05,98.1,98.205,98.115,98.075,98.025,98.02,98.035,98.0,97.93,98.05,98.1,98.09,98.0,97.87,97.79,97.71,97.805,97.75,97.795,97.84,97.795,97.75,97.735,97.86,97.79,97.85,97.87,97.805,97.67,97.8,97.86,98.02,98.08,98.032,98.06,98.15,98.07,98.17,98.27,98.26,98.32,98.36,98.39,98.35,98.355,98.39,98.37,98.445,98.5,98.415,98.46,98.43,98.485,98.44,98.445,98.43,98.575,98.5,98.46,98.43,98.42,98.41,98.39,98.34,98.46,98.53,98.62,98.62,98.62,98.76,98.91,98.88,98.79,98.6,98.56,98.71,98.76,98.695,98.621,98.72,98.73,98.75,98.75,98.68,98.651,98.56,98.58,98.569,98.53,98.55,98.53,98.59,98.6,98.695,98.7,98.86,98.91,98.88,98.84,98.83,98.875,98.82,98.87,98.94,98.89,98.885,98.86,98.82,98.78,98.83,98.85,98.85,98.87,98.89,98.84,98.895,98.9,98.83,98.895,98.96,99.01,98.96,99.01,99.0,99.01,99.07,98.98,98.9,98.86,98.84,98.854,98.86,98.83,98.91,98.88,98.88,98.88,98.9,98.92,98.84,98.845,98.84,98.82,98.8,98.78,98.75,98.73,98.77,98.73,98.69,98.78,98.8,98.81,98.825,98.84,98.845,98.85,98.81,98.82,98.84,98.87,98.8,98.71,98.72,98.73,98.715,98.69,98.7,98.72,98.74,98.78,98.885,98.88,98.92,98.86,98.82,98.85,98.84,98.79,98.81,98.84,98.82,98.86,98.91,98.955,98.91,98.89,98.863,98.88,98.92,98.865,98.845,98.77,98.785,98.75,98.78,98.76,98.78,98.83,98.87,98.84,98.79,98.8,98.79,98.77,98.82,98.8,98.8,98.8,98.73,98.73,98.71,98.72,98.68,98.68,98.75,98.8,98.83,98.823,98.83,98.87,98.97,98.92,98.89,98.94,98.94,98.75
2019-04-12,102.915,102.31,102.9,103.01,103.33,103.16,103.0,103.03,103.07,103.27,103.59,103.77,103.77,103.83,103.785,103.9,103.89,103.88,103.52,103.69,103.58,103.62,103.61,103.71,103.75,103.83,103.83,103.54,103.4,103.33,103.16,103.05,102.88,102.95,102.97,102.85,102.7,102.615,102.68,102.9,102.97,103.105,102.97,102.88,102.895,102.91,102.84,102.76,102.76,102.77,102.84,102.92,103.19,103.35,103.34,103.37,103.41,103.45,103.441,103.41,103.15,103.283,103.26,103.19,103.05,102.95,103.01,102.945,103.1,102.86,102.71,102.645,102.66,102.71,102.72,102.83,102.81,102.71,102.685,102.9,102.8,102.89,102.91,102.99,102.96,102.96,102.93,102.97,102.99,102.88,102.9,103.0,102.91,103.06,103.01,102.96,102.78,102.79,102.918,102.9,102.94,102.95,102.94,102.91,102.805,102.92,102.83,102.85,102.77,102.8,102.801,102.85,102.89,102.955,102.86,102.9,102.91,102.95,102.95,102.95,102.9,102.91,102.86,102.925,102.89,102.97,102.92,102.93,103.01,102.93,102.84,102.91,102.93,102.975,102.96,102.86,102.93,102.91,102.865,102.97,102.99,103.04,103.15,103.31,103.2,103.34,103.28,103.33,103.31,103.37,103.39,103.4,103.34,103.3,103.31,103.35,103.26,103.35,103.4,103.41,103.381,103.33,103.32,103.33,103.27,103.295,103.34,103.35,103.46,103.42,103.425,103.435,103.33,103.21,103.244,103.275,103.32,103.25,103.295,103.41,103.48,103.46,103.45,103.43,103.4,103.37,103.34,103.43,103.47,103.51,103.615,103.76,103.75,103.825,103.925,103.95,103.99,103.93,104.035,104.07,103.99,104.05,104.04,104.14,104.22,104.3,104.33,104.46,104.475,104.525,104.635,104.74,104.75,104.74,104.778,104.67,104.75,104.73,104.57,104.758,104.785,104.645,104.6,104.745,104.67,104.685,104.71,104.745,104.76,104.75,104.75,104.75,104.75,104.755,104.84,104.83,104.95,104.98,104.95,105.0,105.05,105.09,105.08,104.99,105.032,105.11,105.22,105.255,105.26,105.37,105.445,105.56,105.512,105.5,105.59,105.5,105.22,105.2,105.15,105.29,105.38,105.31,105.43,105.36,105.42,105.45,105.45,105.41,105.53,105.55,105.54,105.635,105.68,105.73,105.72,105.78,105.72,105.69,105.71,105.76,105.67,105.76,105.71,105.75,105.821,105.94,106.01,106.085,106.0,105.92,105.8,105.63,105.73,105.695,105.65,105.58,105.6,105.48,105.54,105.63,105.99,105.89,105.82,105.757,105.83,105.86,105.75,105.735,105.575,105.54,105.515,105.38,105.33,105.22,105.12,105.13,105.17,105.12,105.18,105.12,105.14,105.31,104.975,105.15,105.12,105.27,105.09,105.15,105.25,105.38,105.38,105.56,105.63,105.76,105.78,105.81,105.68,105.84,105.893,106.07,105.99,106.06,106.14,106.3,106.445,106.35,106.29,106.26,106.1,106.09,105.89,105.765,105.88,105.79,105.61,105.65,105.53,105.585,105.67,105.79,105.63,105.6,105.62,105.64,105.655,105.618,105.52,105.54,105.44,105.54,105.5,105.52,105.5,105.47,105.41,105.41,105.38,105.41,105.32,105.38,105.31,105.29,105.27,105.22,105.27,105.35,105.45,105.39,105.34,105.33
2019-04-15,104.421,104.13,103.83,103.705,103.54,103.31,103.226,103.485,103.457,103.83,103.475,103.3,102.97,102.87,102.72,102.87,102.85,102.85,102.77,103.02,102.965,102.91,102.95,102.81,103.03,103.09,103.06,103.515,103.55,103.46,103.415,103.725,103.65,103.65,103.64,103.66,103.545,103.71,103.66,103.64,103.61,103.47,103.46,103.44,103.3,103.54,103.52,103.42,103.29,103.35,103.4,103.36,103.435,103.27,103.33,103.35,103.22,103.28,103.13,103.05,102.86,102.66,102.73,102.765,102.66,102.705,102.71,102.7,102.65,102.61,102.5,102.595,102.53,102.37,102.45,102.46,102.5,102.39,102.37,102.48,102.54,102.56,102.493,102.56,102.54,102.525,102.63,102.56,102.57,102.6,102.53,102.42,102.37,102.32,102.345,102.245,102.235,102.26,102.33,102.36,102.51,102.53,102.48,102.43,102.47,102.47,102.31,102.255,102.08,101.98,102.12,102.06,102.01,102.11,102.05,102.07,102.04,101.95,102.14,102.08,102.24,102.3,102.33,102.28,102.29,102.29,102.21,102.33,102.36,102.37,102.43,102.56,102.463,102.425,102.405,102.51,102.53,102.49,102.375,102.35,102.36,102.24,102.29,102.39,102.28,102.33,102.33,102.34,102.35,102.29,102.12,102.21,102.05,102.17,102.21,102.33,102.34,102.26,102.24,102.325,102.23,102.29,102.15,102.175,102.18,102.19,102.21,102.18,102.09,102.19,102.22,102.22,102.22,102.18,102.145,102.11,102.1,102.1,102.05,102.03,102.09,102.065,102.06,102.0,102.02,102.12,102.15,102.138,102.03,102.13,102.12,102.14,102.19,102.1,102.05,102.11,102.13,102.15,102.115,102.16,102.19,102.11,102.14,102.105,102.15,102.081,102.19,102.18,102.17,102.185,102.21,102.24,102.24,102.37,102.28,102.29,102.27,102.265,102.265,102.2,102.15,102.16,102.11,102.122,102.08,102.06,102.08,102.01,102.06,102.04,102.14,102.17,102.17,102.225,102.28,102.24,102.25,102.285,102.32,102.43,102.43,102.38,102.36,102.35,102.3,102.3,102.32,102.36,102.44,102.405,102.38,102.45,102.43,102.45,102.39,102.4,102.42,102.38,102.388,102.42,102.47,102.493,102.44,102.43,102.445,102.43,102.375,102.35,102.345,102.42,102.51,102.48,102.5,102.52,102.56,102.51,102.48,102.42,102.41,102.37,102.41,102.41,102.41,102.48,102.43,102.47,102.48,102.54,102.5,102.445,102.45,102.41,102.31,102.32,102.29,102.25,102.19,102.145,102.22,102.24,102.29,102.118,102.08,102.07,101.98,101.91,101.89,101.8,101.815,101.765,101.67,101.53,101.51,101.495,101.48,101.485,101.54,101.565,101.5,101.46,101.47,101.61,101.63,101.7,101.63,101.72,101.69,101.75,101.8,101.74,101.78,101.715,101.7,101.765,101.7,101.79,101.74,101.78,101.74,101.675,101.75,101.74,101.67,101.59,101.625,101.69,101.7,101.68,101.66,101.65,101.68,101.66,101.7,101.66,101.66,101.71,101.68,101.7,101.64,101.67,101.72,101.69,101.695,101.77,101.75,101.735,101.745,101.76,101.79,101.78,101.785,101.83,101.74,101.73,101.67,101.67,101.72,101.8,101.905,101.945,101.9,101.925,101.92,101.93,101.95,101.96,101.905,101.975,101.885,102.02
2019-04-16,101.97,101.775,101.96,101.99,101.92,101.74,101.6,101.42,101.475,101.47,101.37,101.37,101.29,101.35,101.42,101.62,101.69,101.62,101.54,101.23,101.225,101.03,101.21,101.27,101.35,101.356,101.3,101.26,101.35,101.26,101.355,101.4,101.43,101.49,101.447,101.44,101.39,101.415,101.46,101.47,101.4,101.51,101.76,101.66,101.65,101.56,101.6,101.49,101.53,101.56,101.65,101.62,101.68,101.7,101.71,101.72,101.74,101.89,101.98,102.085,102.1,102.015,101.95,101.92,101.85,101.955,102.0,102.01,102.01,101.945,102.01,101.97,102.02,101.99,101.905,101.9,101.92,101.94,101.88,101.89,101.796,101.86,101.865,101.96,101.85,101.855,101.822,101.805,101.69,101.61,101.65,101.56,101.5,101.516,101.38,101.37,101.37,101.347,101.37,101.45,101.6,101.595,101.66,101.71,101.86,101.86,101.79,101.67,101.605,101.51,101.576,101.555,101.6,101.6,101.51,101.49,101.555,101.56,101.56,101.58,101.58,101.49,101.57,101.59,101.575,101.635,101.64,101.585,101.55,101.57,101.59,101.58,101.6,101.64,101.65,101.66,101.677,101.65,101.76,101.8,101.85,101.94,101.95,101.96,101.917,101.98,102.06,102.045,102.02,102.02,101.98,102.05,101.985,102.085,102.1,102.15,102.17,102.15,102.13,102.1,102.09,102.09,102.058,102.03,102.07,102.15,102.18,102.14,102.175,102.175,102.1,102.145,102.11,101.94,101.93,101.995,101.94,102.0,101.96,102.03,102.0,102.12,102.093,102.16,102.18,102.21,102.165,102.16,102.12,102.05,101.98,102.02,102.05,102.05,102.08,102.1,102.15,102.14,102.12,102.13,102.08,102.075,102.07,101.95,102.02,102.03,102.03,102.08,102.0,102.0,102.01,102.03,102.039,101.98,102.035,102.08,102.08,102.1,102.04,102.04,102.033,102.03,102.03,101.97,101.99,101.99,102.005,102.02,102.005,102.04,102.08,102.049,102.06,102.03,102.02,102.0,101.96,101.92,101.955,101.975,101.98,102.01,102.02,101.95,101.95,101.92,101.92,101.91,101.91,101.94,101.96,101.93,101.91,101.9,101.92,101.87,101.96,101.94,102.01,102.02,102.03,102.035,102.05,102.03,101.96,101.935,101.92,101.91,101.92,101.92,101.915,101.88,101.92,101.9,101.905,101.975,102.005,102.01,102.01,102.07,102.13,102.16,102.15,102.17,102.15,102.2,102.29,102.35,102.34,102.44,102.455,102.485,102.6,102.6,102.635,102.61,102.67,102.78,102.71,102.73,102.71,102.666,102.75,102.73,102.75,102.68,102.64,102.646,102.58,102.63,102.71,102.67,102.63,102.62,102.58,102.6,102.6,102.55,102.54,102.55,102.55,102.6,102.51,102.57,102.56,102.55,102.57,102.53,102.49,102.48,102.53,102.52,102.5,102.49,102.45,102.44,102.495,102.45,102.44,102.51,102.5,102.5,102.45,102.48,102.5,102.48,102.49,102.445,102.36,102.34,102.375,102.36,102.36,102.45,102.43,102.42,102.42,102.43,102.475,102.553,102.53,102.59,102.62,102.54,102.48,102.44,102.46,102.39,102.386,102.33,102.315,102.32,102.325,102.35,102.29,102.375,102.35,102.35,102.33,102.29,102.31,102.25,102.335,102.36,102.33,102.36,102.34,102.38,102.35,102.36
2019-04-17,103.17,103.66,103.59,103.615,103.725,103.49,103.39,103.56,103.43,103.52,103.54,103.545,103.65,103.795,103.86,103.94,103.84,103.69,103.79,103.7,103.8,103.73,103.67,103.61,103.67,103.81,103.82,103.96,103.97,,103.98,104.0,104.09,104.27,104.4,104.23,104.27,104.165,103.99,103.78,103.74,103.63,103.75,103.77,103.78,103.71,103.81,103.58,103.44,103.51,103.54,103.65,103.71,103.71,103.73,103.84,103.785,103.69,103.8,103.83,103.875,103.91,103.89,103.86,103.915,103.99,103.94,103.78,103.9,103.88,103.82,103.76,103.68,103.62,103.56,103.525,103.615,103.63,103.61,103.57,103.48,103.49,103.43,103.48,103.45,103.57,103.43,103.47,103.35,103.15,103.17,103.145,103.17,103.18,103.26,103.43,103.49,103.5,103.55,103.57,103.51,103.5,103.46,103.37,103.33,103.41,103.44,103.385,103.32,103.37,103.38,103.365,103.43,103.5,103.4,103.42,103.44,103.385,103.43,103.37,103.26,103.24,103.21,103.16,103.132,103.2,103.3,103.22,103.2,103.19,103.17,103.16,103.16,103.21,103.16,103.07,103.15,103.1,103.08,103.205,103.15,102.99,103.03,102.99,103.067,103.04,102.94,102.86,102.88,102.85,102.89,102.77,102.71,102.7,102.65,102.63,102.76,102.83,102.76,102.75,102.685,102.66,102.62,102.68,102.62,102.6,102.585,102.68,102.768,102.71,102.755,102.63,102.63,102.6,102.59,102.59,102.64,102.665,102.685,102.68,102.69,102.67,102.745,102.66,102.6,102.67,102.63,102.61,102.49,102.42,102.32,102.275,102.28,102.35,102.38,102.5,102.51,102.41,102.44,102.545,102.58,102.49,102.585,102.52,102.51,102.58,102.58,102.43,102.48,102.48,102.43,102.44,102.38,102.37,102.44,102.47,102.42,102.39,102.425,102.46,102.45,102.438,102.39,102.41,102.41,102.47,102.5,102.55,102.601,102.665,102.67,102.59,102.735,102.68,102.655,102.67,102.66,102.79,102.86,102.88,102.81,102.81,102.75,102.81,102.81,102.78,102.81,102.78,102.76,102.79,102.81,102.84,102.83,102.77,102.76,102.69,102.65,102.59,102.6,102.52,102.45,102.459,102.45,102.49,102.53,102.535,102.58,102.57,102.58,102.58,102.56,102.53,102.48,102.48,102.52,102.52,102.55,102.57,102.55,102.52,102.42,102.365,102.36,102.27,102.3,102.31,102.29,102.31,102.3,102.31,102.243,102.21,102.21,102.12,102.09,101.98,102.08,102.112,102.03,102.0,102.045,102.05,102.03,102.03,101.97,101.92,101.85,101.8,101.82,101.78,101.78,101.73,101.81,101.765,101.77,101.825,101.8,101.779,101.77,101.75,101.8,101.81,101.82,101.78,101.79,101.72,101.73,101.69,101.66,101.64,101.689,101.71,101.75,101.8,101.806,101.75,101.79,101.79,101.69,101.68,101.55,101.56,101.55,101.6,101.65,101.5,101.51,101.44,101.57,101.554,101.58,101.56,101.66,101.64,101.59,101.56,101.54,101.538,101.69,101.71,101.72,101.67,101.65,101.62,101.69,101.64,101.68,101.72,101.74,101.79,101.9,101.84,101.89,101.86,101.86,101.95,101.835,101.87,101.94,101.97,101.99,101.93,101.89,101.84,101.87,101.79,101.805,101.83,101.82,101.83
2019-04-18,101.9,101.92,102.35,102.18,102.08,101.82,101.67,101.77,101.86,101.73,101.965,101.945,102.13,102.055,102.05,102.14,101.97,102.06,102.11,102.16,102.285,102.17,102.249,102.19,102.03,102.045,102.13,102.18,102.25,102.34,102.21,102.21,102.14,102.16,102.19,102.24,102.27,102.33,102.37,102.37,102.41,102.41,102.47,102.44,102.475,102.51,102.495,102.5,102.57,102.46,102.51,102.44,102.49,102.55,102.485,102.5,102.5,102.58,102.67,102.62,102.67,102.685,102.72,102.7,102.68,102.71,102.71,102.7,102.77,102.79,102.645,102.67,102.73,102.71,102.71,102.83,102.885,102.9,102.94,102.97,102.915,102.9,102.94,102.92,102.905,102.955,102.975,103.06,103.05,103.11,103.14,103.175,103.165,103.18,103.05,103.02,103.08,103.07,103.21,103.24,103.23,103.29,103.22,103.1,103.08,103.02,103.0,103.01,103.08,103.06,103.0,103.08,103.13,103.17,103.11,103.24,103.22,103.3,103.3,103.43,103.48,103.56,103.64,103.62,103.64,103.61,103.62,103.71,103.71,103.73,103.77,103.75,103.66,103.63,103.66,103.58,103.55,103.72,103.6,103.6,103.64,103.57,103.52,103.55,103.49,103.58,103.65,103.76,103.7,103.73,103.87,103.88,103.98,104.05,104.09,104.081,104.06,104.09,104.02,103.91,103.91,103.76,103.88,103.95,103.88,103.86,103.76,103.79,103.76,103.83,103.82,103.88,103.78,103.78,103.81,103.86,103.8,103.85,103.78,103.76,103.81,103.81,103.76,103.79,103.83,103.74,103.8,103.71,103.66,103.73,103.7,103.66,103.7,103.754,103.78,103.75,103.87,103.91,103.98,103.95,103.93,103.98,104.01,104.04,104.09,104.0,103.97,103.99,103.97,104.06,104.04,104.1,104.19,104.11,104.09,104.12,104.2,104.05,104.085,104.11,104.207,104.16,104.24,104.21,104.22,104.21,104.16,104.17,104.23,104.18,104.21,104.13,104.12,104.22,104.18,104.24,104.16,104.14,104.13,104.145,104.13,104.12,104.166,104.19,104.187,104.2,104.24,104.22,104.23,104.25,104.23,104.19,104.2,104.17,104.12,104.2,104.09,104.08,104.06,104.059,104.11,104.1,104.06,104.022,104.02,104.06,104.099,104.08,104.06,104.07,104.17,104.191,104.07,104.09,104.0,103.94,103.89,103.9,103.89,103.93,103.88,103.76,103.73,103.66,103.67,103.707,103.76,103.67,103.71,103.77,103.72,103.73,103.77,103.8,103.819,103.78,103.75,103.755,103.82,103.89,103.87,103.83,103.885,103.85,103.91,103.98,103.92,103.93,103.925,103.89,103.92,103.883,103.93,103.93,103.95,103.96,103.98,103.92,103.91,103.91,103.805,103.74,103.68,103.65,103.69,103.68,103.65,103.705,103.7,103.71,103.688,103.61,103.55,103.45,103.44,103.39,103.33,103.409,103.64,103.63,103.71,103.72,103.77,103.77,103.83,103.89,103.84,103.92,103.87,103.84,103.96,104.02,104.05,104.02,104.04,104.2,104.165,104.04,104.16,104.175,104.115,104.07,104.05,104.1,104.11,104.11,104.1,104.02,104.07,104.11,104.14,104.09,104.08,104.16,104.22,104.16,104.185,104.27,104.24,104.23,104.16,104.11,104.08,104.01,103.99,103.97,103.95,103.94,103.88,103.85
2019-04-22,105.633,105.61,105.42,105.62,105.76,105.62,105.78,105.61,105.9,105.82,105.72,105.61,105.5,105.32,105.21,105.42,105.49,105.38,105.2,104.98,104.92,104.7,104.79,104.785,104.92,104.941,104.891,104.845,104.84,104.82,104.917,105.01,105.0,104.98,105.01,105.03,105.28,105.243,105.21,105.26,105.37,105.19,105.05,105.14,105.13,105.1,104.98,105.07,105.11,105.16,105.28,105.39,105.375,105.39,105.312,105.33,105.58,105.69,105.805,105.815,105.84,105.78,105.69,105.52,105.37,105.4,105.4,105.44,105.42,105.27,105.22,105.25,105.325,105.327,105.315,105.328,105.35,105.46,105.42,105.57,105.58,105.66,105.81,105.8,105.76,105.81,105.82,105.79,105.76,105.72,105.68,105.61,105.5,105.411,105.39,105.35,105.39,105.46,105.55,105.59,105.635,105.74,105.68,105.716,105.715,105.71,105.64,105.61,105.6,105.69,105.705,105.62,105.635,105.74,105.685,105.74,105.72,105.67,105.71,105.82,105.82,105.85,105.79,105.765,105.835,105.87,105.875,105.935,105.86,105.92,106.12,106.06,106.04,106.09,106.09,106.06,106.11,106.09,106.02,106.02,106.01,106.085,106.04,106.09,106.07,106.06,106.105,106.09,106.21,106.315,106.405,106.38,106.36,106.425,106.485,106.45,106.47,106.51,106.65,106.65,106.7,106.627,106.67,106.7,106.79,106.825,106.82,106.81,106.83,106.84,106.74,106.67,106.61,106.69,106.71,106.77,106.72,106.69,106.77,106.81,106.85,106.85,106.892,106.91,106.91,106.89,106.94,106.9,107.01,107.01,106.92,106.94,106.97,107.0,107.03,107.03,107.046,107.1,107.09,107.12,107.13,107.06,106.98,107.04,107.0,106.85,106.83,106.94,106.92,106.91,106.88,106.96,107.05,107.145,107.06,107.09,107.14,107.08,107.15,107.18,107.12,107.08,107.03,106.99,107.03,107.025,107.12,107.13,107.13,107.03,106.95,106.94,107.02,107.02,107.02,107.09,107.11,107.1,107.13,107.11,107.04,107.04,107.04,107.09,107.04,106.98,107.03,107.11,107.14,107.16,107.19,107.18,107.2,107.21,107.26,107.27,107.24,107.23,107.26,107.24,107.28,107.22,107.18,107.25,107.271,107.24,107.079,107.08,107.04,107.08,107.07,106.98,106.97,106.98,107.002,106.993,106.93,106.92,106.91,106.9,106.869,106.87,106.83,106.856,106.85,106.78,106.79,106.795,106.82,106.73,106.72,106.656,106.66,106.59,106.61,106.6,106.6,106.576,106.66,106.642,106.68,106.65,106.66,106.63,106.58,106.48,106.44,106.45,106.33,106.25,106.279,106.35,106.5,106.55,106.55,106.58,106.592,106.57,106.662,106.56,106.6,106.621,106.64,106.735,106.745,106.75,106.75,106.669,106.78,106.725,106.74,106.79,106.785,106.78,106.71,106.68,106.725,106.75,106.69,106.71,106.65,106.62,106.6,106.62,106.62,106.61,106.64,106.64,106.64,106.66,106.645,106.66,106.72,106.72,106.71,106.73,106.69,106.72,106.72,106.77,106.77,106.81,106.855,106.84,106.885,106.89,106.88,106.825,106.87,106.89,106.88,106.88,106.87,106.875,106.85,106.88,106.89,106.895,106.91,106.94,106.97,106.96,106.97,107.03,107.01,106.93,106.83,106.77,106.865,107.05
2019-04-23,106.78,106.71,106.96,107.04,107.41,107.24,107.56,107.227,107.215,106.8,106.75,106.855,106.75,106.81,106.88,106.993,107.005,107.02,106.88,106.83,106.635,106.386,106.425,106.22,106.24,106.118,105.841,105.88,106.165,106.03,106.11,106.17,106.21,106.13,106.17,106.23,106.07,106.105,106.1,105.925,105.9,106.08,105.97,105.949,105.857,105.67,105.72,105.642,105.585,105.44,105.505,105.615,105.69,105.818,106.05,106.02,106.02,106.34,106.2,106.13,106.125,106.2,106.325,106.31,106.38,106.27,106.4,106.34,106.41,106.47,106.507,106.59,106.63,106.6,106.62,106.631,106.63,106.6,106.615,106.54,106.64,106.56,106.574,106.73,106.735,106.74,106.85,106.84,106.87,106.865,106.935,107.1,107.01,107.1,107.21,107.195,107.095,107.04,107.05,107.09,107.17,107.201,107.22,107.25,107.27,107.29,107.21,107.25,107.21,107.27,107.188,107.04,106.935,106.84,107.03,106.96,106.84,106.84,106.86,106.815,106.84,106.93,106.79,106.526,106.63,106.6,106.66,106.62,106.672,106.83,106.7,106.75,106.63,106.62,106.68,106.72,106.73,106.715,106.63,106.58,106.68,106.77,106.97,106.92,107.02,107.09,107.03,106.99,107.09,107.08,107.11,107.05,107.08,107.17,107.12,107.27,107.31,107.36,107.335,107.33,107.38,107.36,107.38,107.48,107.52,107.45,107.51,107.365,107.34,107.37,107.34,107.31,107.345,107.35,107.34,107.44,107.52,107.51,107.46,107.44,107.47,107.41,107.39,107.37,107.266,107.31,107.36,107.521,107.6,107.57,107.57,107.6,107.415,107.445,107.51,107.59,107.73,107.61,107.53,107.56,107.66,107.7,107.73,107.69,107.55,107.63,107.735,107.78,107.71,107.67,107.61,107.58,107.65,107.72,107.67,107.63,107.63,107.63,107.55,107.55,107.5,107.485,107.54,107.57,107.58,107.54,107.56,107.59,107.57,107.65,107.62,107.58,107.57,107.42,107.41,107.25,107.21,107.34,107.38,107.325,107.325,107.26,107.27,107.315,107.33,107.35,107.4,107.41,107.4,107.45,107.4,107.4,107.385,107.38,107.405,107.33,107.41,107.37,107.42,107.47,107.485,107.52,107.52,107.5,107.55,107.53,107.49,107.53,107.545,107.524,107.56,107.56,107.565,107.59,107.64,107.67,107.68,107.695,107.7,107.72,107.83,107.79,107.82,107.82,107.8,107.745,107.8,107.8,107.84,107.82,107.8,107.745,107.83,107.53,107.405,107.47,107.42,107.47,107.57,107.485,107.38,107.346,107.33,107.33,107.29,107.25,107.23,107.26,107.25,107.215,107.235,107.22,107.2,107.245,107.27,107.25,107.26,107.234,107.18,107.19,107.15,107.11,107.03,107.11,107.06,107.05,107.09,107.14,107.12,107.13,106.98,106.901,106.8,106.78,106.83,106.84,106.805,106.83,106.79,106.74,106.87,106.89,106.83,106.85,106.925,107.01,106.94,106.94,106.92,106.84,106.87,106.86,106.91,106.98,106.955,106.93,106.98,106.94,106.905,106.87,106.97,106.91,106.96,106.95,106.91,106.95,106.94,106.99,106.975,106.96,106.92,106.94,106.964,106.925,106.94,106.83,106.76,106.72,106.845,106.865,106.885,106.9,106.88,106.885,106.865,106.84,106.85,106.86,106.79,106.65
2019-04-24,107.25,107.22,106.99,107.33,107.312,107.0,107.19,106.86,106.38,106.46,106.07,106.19,106.22,106.27,106.025,105.94,105.85,105.93,106.095,105.94,105.85,106.08,106.16,106.02,106.13,106.06,106.01,105.95,105.85,105.87,105.75,105.56,105.43,105.335,105.22,105.08,105.03,104.96,105.09,105.13,105.13,104.95,104.86,105.15,105.14,105.27,105.36,105.39,105.35,105.43,105.64,105.81,105.725,105.8,105.75,105.85,105.745,105.89,105.785,106.01,105.84,105.87,105.87,105.89,105.915,106.01,105.96,105.97,105.99,105.89,105.74,105.662,105.48,105.435,105.53,105.66,105.68,105.83,105.865,105.73,105.635,105.55,105.54,105.5,105.515,105.51,105.6,105.5,105.515,105.5,105.548,105.505,105.5,105.525,105.51,105.53,105.515,105.5,105.5,105.51,105.51,105.55,105.52,105.54,105.52,105.51,105.51,105.51,105.505,105.54,105.51,105.511,105.51,105.52,105.52,105.52,105.53,105.54,105.53,105.675,105.73,105.63,105.54,105.58,105.54,105.69,105.72,105.55,105.56,105.585,105.521,105.533,105.61,105.69,105.74,105.68,105.63,105.55,105.56,105.58,105.55,105.55,105.56,105.63,105.56,105.65,105.61,105.61,105.63,105.62,105.63,105.69,105.61,105.59,105.57,105.525,105.59,105.585,105.61,105.59,105.53,105.54,105.57,105.58,105.55,105.54,105.58,105.52,105.54,105.52,105.55,105.52,105.52,105.64,105.695,105.65,105.63,105.6,105.58,105.54,105.52,105.54,105.53,105.57,105.53,105.5,105.54,105.525,105.51,105.51,105.53,105.52,105.5,105.475,105.46,105.52,105.46,105.49,105.5,105.51,105.54,105.49,105.53,105.53,105.59,105.55,105.54,105.58,105.58,105.79,105.78,105.69,105.62,105.63,105.58,105.52,105.51,105.52,105.51,105.5,105.45,105.47,105.45,105.45,105.46,105.525,105.46,105.5,105.5,105.48,105.47,105.53,105.5,105.5,105.51,105.48,105.5,105.48,105.45,105.515,105.26,105.17,105.2,105.26,105.23,105.14,105.115,105.07,105.065,105.02,105.01,105.06,105.015,105.07,105.03,105.007,105.08,105.1,105.09,105.1,105.02,105.0,105.0,105.03,105.02,105.03,104.98,105.02,105.05,104.99,105.02,105.05,105.145,105.15,105.19,105.23,105.22,105.22,105.25,105.27,105.25,105.28,105.26,105.2,105.14,105.21,105.27,105.295,105.31,105.32,105.24,105.19,105.21,105.225,105.22,105.24,105.24,105.23,105.22,105.23,105.25,105.21,105.23,105.17,105.17,105.085,105.045,105.01,105.04,105.025,105.0,104.99,104.95,104.98,104.931,105.0,105.08,105.07,105.035,105.08,105.08,105.14,105.15,105.11,105.16,105.135,105.12,105.08,105.03,105.07,105.09,105.045,105.04,105.01,104.97,104.94,104.94,104.97,104.88,104.84,104.83,104.74,104.75,104.78,104.71,104.72,104.77,104.75,104.75,104.74,104.73,104.76,104.75,104.75,104.75,104.715,104.73,104.73,104.75,104.75,104.79,104.75,104.69,104.64,104.65,104.59,104.6,104.52,104.53,104.47,104.4,104.38,104.47,104.5,104.58,104.505,104.505,104.44,104.4,104.41,104.4,104.29,104.245,104.19,104.27,104.18,104.06,104.01,103.95,103.95
2019-04-25,103.813,103.85,103.82,103.65,103.697,103.73,103.81,104.13,104.005,103.92,103.61,103.68,103.7,103.85,103.85,103.78,103.73,103.75,103.69,103.78,103.87,104.08,103.88,103.905,103.69,103.855,103.825,103.81,103.91,103.83,103.79,103.63,103.62,103.61,103.66,103.548,103.63,103.58,103.44,103.37,103.4,103.32,103.39,103.32,103.11,103.17,103.14,103.16,103.13,103.16,103.195,103.26,103.37,103.51,103.51,103.6,103.623,103.57,103.57,103.585,103.42,103.27,103.25,103.2,103.14,103.38,103.43,103.49,103.48,103.542,103.46,103.4,103.41,103.42,103.46,103.55,103.52,103.54,103.625,103.71,103.73,103.71,103.67,103.74,103.52,103.48,103.37,103.32,103.39,103.36,103.27,103.23,103.36,103.595,103.675,103.77,103.715,103.695,103.835,103.73,103.76,103.845,103.94,103.89,103.845,103.715,103.62,103.62,103.76,103.8,103.87,103.95,104.01,103.98,104.0,103.94,103.85,103.96,103.9,103.85,103.83,103.72,103.58,103.73,103.79,103.82,103.89,103.94,103.97,103.97,103.98,103.89,103.94,103.88,103.82,103.91,103.97,103.89,103.94,103.9,103.95,103.92,103.93,103.93,103.97,103.99,104.0,104.09,104.03,104.0,104.08,104.06,104.04,103.94,103.99,103.98,103.93,103.86,103.9,103.85,103.88,103.86,103.86,103.83,103.84,103.92,103.83,103.78,103.81,103.81,103.73,103.78,103.82,103.785,103.77,103.79,103.76,103.72,103.73,103.616,103.63,103.64,103.65,103.63,103.64,103.67,103.67,103.69,103.68,103.68,103.72,103.7,103.72,103.7,103.72,103.7,103.66,103.69,103.7,103.64,103.6,103.57,103.59,103.554,103.575,103.63,103.615,103.64,103.63,103.66,103.65,103.661,103.63,103.66,103.63,103.61,103.55,103.63,103.61,103.6,103.63,103.62,103.665,103.66,103.62,103.55,103.5,103.52,103.555,103.59,103.6,103.53,103.55,103.56,103.59,103.57,103.54,103.62,103.61,103.65,103.615,103.65,103.65,103.62,103.65,103.68,103.68,103.64,103.67,103.67,103.63,103.6,103.61,103.62,103.56,103.54,103.63,103.55,103.5,103.48,103.43,103.42,103.382,103.33,103.33,103.32,103.36,103.3,103.27,103.21,103.18,103.185,103.15,103.28,103.221,103.205,103.18,103.12,103.09,103.1,103.03,102.97,103.005,103.02,103.015,103.0,102.975,102.97,103.05,103.07,102.87,102.85,102.82,102.86,102.877,102.845,102.805,102.825,102.8,102.9,102.925,102.97,103.025,103.03,103.04,102.92,102.89,102.915,102.86,102.72,102.65,102.74,102.72,102.66,102.69,102.705,102.737,102.84,102.84,102.85,102.91,102.9,102.84,102.85,102.865,102.89,102.83,102.87,102.79,102.85,102.84,102.84,102.81,102.82,102.72,102.74,102.72,102.72,102.73,102.71,102.64,102.625,102.63,102.605,102.51,102.48,102.4,102.35,102.42,102.45,102.5,102.59,102.566,102.625,102.555,102.67,102.79,102.93,102.915,103.01,102.89,102.81,102.91,102.9,102.81,102.77,102.76,102.82,102.75,102.795,102.8,102.78,102.76,102.79,102.81,102.84,102.8,102.76,102.6,102.55,102.54,102.56,102.56,102.59,102.56,102.46,102.24,102.18,102.08,102.09
2019-04-26,101.39,101.664,102.1,101.66,101.705,101.3,101.11,101.195,100.74,100.539,100.32,100.295,100.07,100.05,99.76,100.25,100.04,100.2,100.36,100.27,100.49,100.76,100.71,100.71,100.58,100.46,100.25,100.505,100.48,100.34,100.28,100.26,100.23,100.121,100.06,100.042,99.98,99.76,99.6,99.62,99.55,99.53,99.46,99.41,99.51,99.59,99.45,99.37,99.324,99.19,99.1,99.075,99.14,99.11,99.18,99.175,99.08,98.945,98.91,98.96,98.91,98.895,98.85,98.94,98.915,98.73,98.68,98.7,98.56,98.67,98.625,98.56,98.46,98.46,98.51,98.73,98.66,98.66,98.73,98.74,98.66,98.53,98.415,98.43,98.29,98.12,97.91,97.81,97.8,97.785,97.7,97.76,97.61,97.64,97.71,97.74,97.61,97.57,97.56,97.61,97.59,97.55,97.64,97.61,97.73,97.94,97.88,97.9,97.88,97.98,97.97,98.02,98.14,98.14,98.13,98.01,97.98,98.06,98.225,98.29,98.06,98.07,98.03,97.94,97.93,97.97,98.04,98.08,98.19,98.21,98.18,98.275,98.19,98.23,98.1,98.05,98.155,98.19,98.16,98.25,98.1,97.96,97.87,97.9,97.93,97.9,97.71,97.745,97.75,97.82,97.88,97.925,97.91,97.85,97.88,97.965,97.87,97.9,97.84,97.847,97.861,97.84,97.79,97.78,97.815,97.85,97.758,97.77,97.845,97.82,97.84,97.7,97.76,97.63,97.6,97.54,97.47,97.47,97.43,97.44,97.44,97.43,97.505,97.489,97.4,97.44,97.42,97.42,97.51,97.54,97.56,97.56,97.6,97.545,97.6,97.62,97.68,97.59,97.576,97.6,97.63,97.63,97.56,97.535,97.56,97.55,97.45,97.505,97.505,97.54,97.64,97.71,97.835,97.75,97.69,97.74,97.66,97.63,97.63,97.715,97.72,97.71,97.7,97.65,97.59,97.514,97.5,97.43,97.424,97.37,97.44,97.38,97.47,97.435,97.42,97.48,97.4,97.37,97.45,97.48,97.44,97.48,97.5,97.49,97.49,97.43,97.41,97.45,97.49,97.43,97.38,97.35,97.52,97.52,97.515,97.49,97.48,97.43,97.48,97.48,97.46,97.4,97.41,97.41,97.41,97.48,97.554,97.54,97.6,97.61,97.64,97.57,97.48,97.48,97.48,97.42,97.44,97.39,97.3,97.33,97.25,97.29,97.23,97.13,97.2,97.35,97.33,97.31,97.34,97.35,97.45,97.52,97.65,97.76,97.64,97.54,97.68,97.68,97.7,97.52,97.58,97.64,97.57,97.625,97.59,97.49,97.46,97.39,97.37,97.485,97.48,97.44,97.445,97.5,97.42,97.44,97.42,97.4,97.43,97.41,97.5,97.55,97.535,97.52,97.51,97.49,97.51,97.53,97.53,97.46,97.455,97.59,97.555,97.57,97.66,97.66,97.73,97.68,97.69,97.615,97.6,97.49,97.4,97.33,97.35,97.35,97.43,97.41,97.45,97.53,97.51,97.505,97.45,97.46,97.47,97.47,97.48,97.45,97.41,97.45,97.47,97.51,97.48,97.48,97.49,97.55,97.685,97.67,97.725,97.68,97.735,97.7,97.66,97.59,97.65,97.645,97.615,97.555,97.635,97.655,97.655,97.655,97.645,97.705,97.835,97.84,97.99,98.1,98.13,97.88
2019-04-29,97.915,97.92,98.09,98.324,98.39,98.08,98.06,97.69,97.34,97.68,97.75,97.933,98.04,98.0,97.938,97.92,97.97,98.065,98.07,97.93,97.81,97.72,97.67,97.56,97.55,97.515,97.44,97.36,97.31,97.17,97.47,97.61,97.76,97.71,97.76,97.845,97.83,97.67,97.45,97.38,97.42,97.45,97.37,97.281,97.2,96.95,96.985,97.14,97.14,97.2,97.125,97.06,97.14,97.01,96.99,96.99,96.955,96.85,96.76,96.85,96.98,97.08,97.05,97.14,97.16,97.09,97.12,97.08,97.05,96.98,96.94,97.013,96.995,97.0,96.99,97.02,96.96,96.94,97.025,97.12,97.02,97.039,96.998,96.91,96.94,97.01,96.94,96.86,96.86,96.94,96.87,96.95,96.86,96.92,96.96,96.88,96.92,96.92,96.935,96.94,96.93,96.955,96.96,96.93,96.76,96.875,96.85,96.85,96.89,96.88,96.88,96.98,97.055,97.05,97.03,97.07,97.16,97.29,97.24,97.23,97.42,97.48,97.56,97.62,97.68,97.68,97.62,97.54,97.61,97.63,97.485,97.39,97.41,97.39,97.33,97.28,97.36,97.355,97.37,97.388,97.3,97.405,97.4,97.35,97.33,97.27,97.35,97.28,97.47,97.53,97.465,97.49,97.5,97.58,97.655,97.67,97.6,97.59,97.67,97.718,97.76,97.73,97.64,97.6,97.67,97.61,97.58,97.65,97.63,97.63,97.57,97.59,97.646,97.625,97.58,97.56,97.53,97.565,97.54,97.6,97.56,97.55,97.47,97.43,97.47,97.5,97.53,97.55,97.58,97.55,97.62,97.56,97.75,97.7,97.63,97.65,97.7,97.78,97.83,97.85,97.76,97.7,97.69,97.68,97.67,97.615,97.6,97.605,97.61,97.62,97.63,97.65,97.63,97.58,97.53,97.53,97.57,97.565,97.62,97.61,97.725,97.685,97.574,97.615,97.635,97.69,97.65,97.605,97.6,97.59,97.57,97.63,97.655,97.65,97.63,97.58,97.595,97.562,97.53,97.61,97.57,97.585,97.58,97.565,97.585,97.57,97.505,97.505,97.465,97.55,97.48,97.48,97.53,97.57,97.565,97.58,97.53,97.57,97.605,97.695,97.68,97.675,97.66,97.64,97.71,97.62,97.64,97.65,97.645,97.65,97.635,97.65,97.66,97.67,97.66,97.6,97.6,97.675,97.677,97.612,97.59,97.55,97.52,97.565,97.58,97.55,97.53,97.51,97.4,97.465,97.52,97.49,97.55,97.53,97.52,97.483,97.46,97.465,97.51,97.47,97.45,97.41,97.55,97.52,97.52,97.42,97.44,97.44,97.39,97.328,97.33,97.31,97.34,97.29,97.32,97.32,97.36,97.35,97.32,97.24,97.22,97.209,97.1,97.13,97.07,96.94,96.988,96.93,96.915,96.885,96.94,96.99,96.99,97.05,97.08,97.08,97.075,97.045,97.075,97.07,97.08,97.01,97.06,97.075,97.09,97.115,97.07,96.96,96.99,96.995,97.02,97.02,97.015,96.94,96.89,96.821,96.855,96.9,96.91,96.98,97.03,97.065,97.04,97.06,97.04,97.08,97.13,97.175,97.14,97.17,97.19,97.15,97.17,97.155,97.19,97.14,97.18,97.2,97.21,97.19,97.18,97.12,97.145,97.14,97.125,97.14,97.11,97.11,97.14,97.0
2019-04-30,98.37,98.084,98.26,97.76,97.67,97.55,97.61,97.455,97.42,97.23,97.305,97.13,97.03,97.055,97.0,96.87,96.972,96.945,96.905,96.88,96.865,97.029,96.96,96.93,96.85,96.635,96.71,96.58,96.647,96.555,96.6,96.485,96.56,96.58,96.43,96.42,96.27,96.4,96.325,96.34,96.405,96.28,96.22,96.195,96.125,96.015,95.78,95.67,95.679,95.39,95.299,95.23,95.47,95.65,95.77,95.9,95.95,95.86,95.87,95.92,95.93,95.987,96.13,96.235,96.23,96.29,96.24,96.215,96.21,96.15,96.19,96.3,96.225,95.97,96.01,95.87,95.79,95.64,95.44,95.58,95.78,95.77,95.8,96.0,95.885,96.09,96.11,96.025,96.14,96.16,96.09,96.09,96.076,95.81,95.69,95.69,95.63,95.5,95.32,95.46,95.475,95.42,95.368,95.31,95.44,95.62,95.435,95.47,95.47,95.578,95.645,95.61,95.798,95.75,95.91,95.94,95.905,95.8,95.92,95.865,96.0,96.0,95.87,95.91,95.92,95.93,95.921,96.06,96.16,96.175,96.03,95.935,95.82,95.85,95.76,95.59,95.5,95.46,95.73,95.79,95.87,95.93,95.84,95.77,95.77,95.76,95.74,95.84,95.77,95.75,95.67,95.71,95.68,95.69,95.68,95.69,95.609,95.618,95.67,95.65,95.69,95.67,95.665,95.61,95.56,95.55,95.5,95.56,95.46,95.56,95.555,95.53,95.51,95.49,95.45,95.53,95.5,95.47,95.5,95.64,95.7,95.62,95.616,95.58,95.58,95.54,95.5,95.502,95.51,95.47,95.45,95.5,95.44,95.485,95.467,95.47,95.45,95.47,95.438,95.445,95.43,95.41,95.35,95.42,95.435,95.44,95.445,95.489,95.53,95.56,95.565,95.57,95.59,95.61,95.59,95.652,95.701,95.71,95.71,95.68,95.67,95.695,95.63,95.64,95.58,95.58,95.54,95.57,95.53,95.48,95.46,95.45,95.46,95.4,95.36,95.33,95.32,95.3,95.285,95.38,95.32,95.36,95.34,95.42,95.42,95.4,95.32,95.27,95.29,95.29,95.205,95.135,95.206,95.2,95.2,95.14,95.19,95.195,95.19,95.18,95.16,95.18,95.19,95.19,95.15,95.15,95.08,95.06,95.075,95.1,95.085,95.045,95.04,95.05,95.02,95.03,95.033,95.025,95.08,95.055,95.035,95.06,95.1,95.09,95.125,95.1,95.06,95.04,95.04,95.05,95.02,95.1,95.1,95.09,95.04,95.165,95.17,95.22,95.22,95.235,95.27,95.19,95.17,95.18,95.25,95.19,95.165,95.2,95.24,95.18,95.22,95.13,95.02,95.15,95.155,95.195,95.21,95.28,95.28,95.4,95.5,95.57,95.56,95.59,95.56,95.52,95.495,95.54,95.541,95.58,95.58,95.6,95.61,95.65,95.65,95.635,95.65,95.62,95.67,95.68,95.66,95.72,95.8,95.74,95.74,95.735,95.77,95.785,95.7,95.743,95.91,95.92,95.87,95.895,95.81,95.77,95.81,95.86,95.94,95.88,95.81,95.8,95.845,95.907,95.915,95.99,95.93,95.933,95.92,95.93,95.886,95.99,95.91,95.91,95.97,95.88,95.84,95.84,95.85,95.86,95.82,95.88,95.91,95.93,95.945,95.96,95.94,95.9,95.98,95.97
2019-05-01,95.905,96.45,96.45,95.823,95.91,95.705,95.82,95.7,95.595,95.56,95.44,95.34,95.22,95.375,95.59,95.81,95.705,95.74,95.8,95.59,95.72,95.52,95.52,95.47,95.38,95.334,95.225,95.19,95.17,95.08,95.05,94.92,94.95,94.84,94.87,94.995,95.07,95.26,95.22,95.09,95.24,95.34,95.155,95.04,95.15,95.05,95.11,95.15,95.17,95.23,95.31,95.3,95.24,95.29,95.29,95.25,95.222,95.05,95.0,94.99,94.59,94.71,94.75,94.68,94.76,94.82,94.9,94.87,94.98,94.92,94.7,94.73,94.76,94.765,94.855,94.83,94.76,94.8,94.793,94.67,94.58,94.54,94.58,94.5,94.39,94.31,94.289,94.32,94.255,94.22,94.171,94.09,94.11,94.105,94.11,94.17,94.11,94.12,93.98,94.07,94.14,94.09,94.1,94.035,94.035,94.015,93.9,93.92,94.03,93.99,93.95,93.95,93.99,93.975,93.97,94.02,93.99,93.96,94.01,93.96,93.99,93.96,93.955,93.94,93.96,93.93,93.935,93.95,94.01,93.96,93.995,94.24,94.24,94.24,94.15,94.16,94.15,94.135,94.04,94.05,94.065,94.15,94.05,94.05,94.04,94.07,94.05,94.08,93.96,94.06,93.99,93.965,93.95,94.005,94.04,94.025,93.96,93.89,93.86,93.79,93.69,93.745,93.7,93.57,93.555,93.635,93.6,93.55,93.49,93.44,93.455,93.57,93.565,93.62,93.671,93.62,93.615,93.65,93.627,93.63,93.543,93.48,93.475,93.47,93.45,93.485,93.49,93.41,93.39,93.35,93.425,93.32,93.36,93.37,93.33,93.31,93.29,93.19,93.2,93.181,93.22,93.12,93.1,93.14,93.17,93.26,93.35,93.37,93.41,93.44,93.5,93.43,93.355,93.43,93.47,93.42,93.34,93.45,93.35,93.42,93.43,93.43,93.41,93.33,93.46,93.495,93.46,93.445,93.43,93.475,93.405,93.34,93.205,93.33,93.37,93.381,93.26,93.28,93.35,93.304,93.242,93.24,93.29,93.29,93.36,93.377,93.35,93.49,93.496,93.525,93.53,93.58,93.57,93.56,93.49,93.43,93.475,93.44,93.5,93.554,93.495,93.52,93.53,93.54,93.52,93.54,93.52,93.51,93.49,93.47,93.485,93.42,93.362,93.435,93.48,93.645,93.68,93.83,93.66,93.62,93.49,93.507,93.612,93.63,93.6,93.59,93.745,93.795,93.8,93.75,93.7,93.722,93.81,93.85,93.85,93.85,93.75,93.76,93.71,93.64,93.503,93.53,93.49,93.36,93.425,93.37,93.45,93.4,93.286,93.28,93.15,93.2,93.16,93.19,93.165,93.124,93.08,93.056,93.14,93.13,93.2,93.21,93.24,93.43,93.445,93.5,93.53,93.47,93.47,93.49,93.58,93.47,93.42,93.26,93.28,93.29,93.29,93.33,93.31,93.3,93.32,93.28,93.27,93.22,93.29,93.25,93.29,93.31,93.255,93.26,93.23,93.18,93.15,93.09,92.98,92.98,92.96,92.98,93.01,92.985,92.94,92.875,92.75,92.82,92.765,92.78,92.69,92.72,92.68,92.66,92.63,92.73,92.71,92.76,92.684,92.57,92.59,92.54,92.54,92.55,92.51,92.575,92.56,92.58,92.48,92.35,92.35,92.26,92.2,91.89
2019-05-02,91.51,91.35,91.08,91.11,91.53,91.71,91.815,91.695,91.85,92.13,91.81,91.7,91.58,91.71,91.94,91.77,91.84,91.996,91.96,91.86,91.85,91.84,91.705,91.65,91.645,91.75,91.53,91.43,91.57,91.595,91.71,91.8,91.635,91.64,91.69,91.67,91.629,91.39,91.505,91.351,91.29,91.32,91.27,91.53,91.44,91.405,91.33,91.4,91.41,91.315,91.5,91.575,91.67,91.66,91.63,91.62,91.64,91.505,91.49,91.375,91.34,91.432,91.48,91.42,91.34,91.24,91.215,91.07,90.8,91.005,90.915,90.905,91.002,90.89,90.785,90.81,90.76,90.725,90.67,90.67,90.645,90.7,90.735,90.72,90.69,90.81,90.75,90.605,90.62,90.51,90.515,90.445,90.51,90.5,90.545,90.5,90.47,90.47,90.39,90.49,90.47,90.39,90.49,90.32,90.43,90.335,90.23,90.23,90.084,90.04,89.91,89.96,89.87,90.02,89.91,90.06,89.88,89.88,89.83,89.76,89.94,89.96,89.97,89.92,89.93,90.04,90.0,89.9,89.85,89.88,89.88,89.81,89.65,89.64,89.485,89.54,89.52,89.66,89.78,89.92,89.81,89.665,89.63,89.635,89.48,89.49,89.43,89.4,89.38,89.445,89.61,89.55,89.6,89.55,89.625,89.835,89.81,89.805,89.69,89.84,89.81,89.776,89.815,89.9,89.57,89.64,89.47,89.62,89.6,89.56,89.53,89.54,89.565,89.63,89.54,89.71,89.78,89.755,89.705,89.83,89.85,90.05,89.96,89.82,89.865,89.75,89.855,89.84,89.89,89.79,89.8,89.78,89.8,89.85,89.765,89.84,89.81,89.79,89.83,89.77,89.74,89.6,89.57,89.6,89.725,89.665,89.65,89.64,89.64,89.73,89.69,89.59,89.58,89.48,89.4,89.52,89.45,89.469,89.49,89.5,89.57,89.55,89.61,89.58,89.59,89.7,89.78,89.78,89.765,89.88,89.93,89.95,89.99,90.005,90.0,89.95,89.98,89.885,89.85,89.92,89.92,89.95,89.88,89.89,89.85,89.92,89.83,89.81,89.86,89.785,89.85,89.75,89.71,89.81,89.84,89.91,89.83,89.75,89.73,89.7,89.75,89.75,89.75,89.73,89.64,89.74,89.74,89.755,89.61,89.66,89.6,89.595,89.58,89.52,89.59,89.61,89.58,89.61,89.7,89.71,89.62,89.59,89.57,89.67,89.72,89.59,89.7,89.71,89.75,89.711,89.68,89.75,89.805,89.92,89.881,89.88,89.83,89.65,89.54,89.66,89.68,89.67,89.682,89.67,89.63,89.615,89.645,89.74,89.72,89.73,89.75,89.72,89.8,89.795,89.845,89.78,89.68,89.67,89.64,89.59,89.568,89.775,89.77,89.78,89.705,89.775,89.87,89.81,89.695,89.73,89.739,89.755,89.81,89.76,89.76,89.785,89.73,89.65,89.62,89.646,89.65,89.67,89.62,89.63,89.575,89.68,89.73,89.703,89.76,89.76,89.72,89.75,89.76,89.82,89.81,89.8,89.8,89.75,89.76,89.84,89.801,89.75,89.695,89.61,89.63,89.56,89.66,89.665,89.735,89.71,89.58,89.61,89.735,89.73,89.81,89.69,89.67,89.797,89.78,89.735,89.71,89.63,89.615,89.57,89.655,89.505,89.5,89.51,89.405,89.23
2019-05-03,92.489,92.37,92.0,91.93,92.14,91.805,91.365,91.43,91.175,91.02,91.27,91.18,91.21,91.22,91.21,90.87,90.15,90.02,90.47,90.53,90.74,90.8,90.93,90.925,90.985,91.03,91.03,90.9,90.981,91.25,90.99,90.82,91.275,91.53,91.67,91.795,91.89,91.96,91.8,91.74,91.78,91.95,91.9,91.94,91.91,91.884,92.011,92.13,92.29,92.35,92.26,92.315,92.41,92.36,92.5,92.63,92.72,92.96,93.07,92.88,92.895,92.89,92.81,92.875,93.0,92.87,92.94,92.93,93.01,92.995,93.08,93.0,93.01,93.04,93.012,93.03,93.025,93.07,93.048,93.0,92.925,93.005,92.96,93.01,92.95,93.0,93.0,92.955,92.98,92.99,92.97,93.025,93.41,93.29,93.22,93.38,93.34,93.195,93.37,93.57,93.42,93.145,93.32,93.13,93.1,92.985,92.98,92.74,92.715,92.59,92.479,92.525,92.71,92.67,92.79,92.9,92.845,92.8,92.729,92.86,92.79,92.82,92.77,92.9,92.72,92.76,92.81,92.81,92.75,92.8,92.78,92.75,92.77,92.83,92.78,92.73,92.67,92.615,92.62,92.65,92.738,92.78,92.76,92.64,92.68,92.745,92.64,92.69,92.62,92.62,92.72,92.7,92.77,92.715,92.75,92.83,92.885,92.91,92.92,92.92,92.9,92.895,92.76,92.73,92.76,92.8,92.83,92.755,92.78,92.78,92.79,92.78,92.8,92.82,92.75,92.78,92.74,92.77,92.8,92.775,92.84,92.9,92.85,92.75,92.75,92.76,92.77,92.79,92.83,92.9,92.925,92.97,93.03,93.03,93.04,92.84,92.9,92.94,93.02,93.01,92.99,92.94,92.94,92.95,92.7,92.65,92.74,92.77,92.775,92.765,92.765,92.79,92.795,92.745,92.67,92.69,92.755,92.71,92.71,92.7,92.67,92.67,92.69,92.68,92.66,92.7,92.62,92.66,92.66,92.66,92.76,92.74,92.68,92.64,92.68,92.77,92.7,92.6,92.605,92.62,92.7,92.6,92.555,92.43,92.29,92.23,92.15,92.08,92.11,92.105,92.18,92.2,92.17,92.075,92.02,92.09,92.09,92.12,92.195,92.12,92.205,92.14,92.1,92.115,91.95,91.84,91.83,91.875,91.87,91.815,91.77,91.71,91.69,91.73,91.72,91.82,91.84,91.81,91.87,91.94,91.9,91.95,92.08,92.04,92.02,92.143,92.17,92.17,92.135,92.135,92.19,92.235,92.18,92.11,92.02,91.925,91.965,91.91,91.83,91.9,91.835,91.82,91.795,91.77,91.79,91.78,91.725,91.71,91.67,91.625,91.695,91.63,91.68,91.74,91.75,91.81,91.805,91.77,91.74,91.73,91.79,91.9,92.04,92.05,92.11,92.18,92.06,91.995,91.92,91.84,91.85,91.8,91.72,91.78,91.76,91.785,91.84,91.88,91.895,91.93,91.81,91.76,91.77,91.76,91.745,91.695,91.7,91.73,91.68,91.655,91.67,91.68,91.66,91.71,91.695,91.76,91.75,91.82,91.78,91.62,91.62,91.65,91.59,91.57,91.66,91.625,91.52,91.532,91.59,91.6,91.66,91.615,91.47,91.47,91.51,91.44,91.46,91.24,91.27,91.28,91.38,91.35,91.355,91.37,91.49,91.53,91.54,91.57,91.47,90.9
2019-05-06,89.774,90.24,90.585,90.26,90.32,90.15,90.165,89.96,90.02,90.28,90.0,90.225,89.92,89.93,89.98,90.04,89.98,90.08,90.12,90.06,89.935,90.05,90.04,90.34,90.51,90.54,90.52,90.72,90.7,90.859,90.755,90.69,90.66,90.605,90.67,90.8,91.0,91.08,91.27,91.37,91.285,91.41,91.45,91.62,91.601,91.55,91.495,91.39,91.525,91.455,91.32,91.43,91.333,91.13,91.21,91.11,91.39,91.24,91.12,91.16,90.879,90.86,90.79,90.8,90.73,90.69,90.74,90.9,90.91,90.89,91.018,91.0,90.96,90.795,90.78,90.75,90.795,90.68,90.595,90.4,90.51,90.672,90.56,90.645,90.625,90.68,90.76,90.89,90.91,90.953,90.92,90.85,90.825,90.7,90.67,90.56,90.535,90.58,90.5,90.5,90.43,90.53,90.51,90.64,90.758,90.83,91.04,91.03,90.96,91.099,91.159,91.03,90.91,90.925,90.91,90.9,91.0,90.985,91.027,90.91,91.03,90.91,90.8,90.7,90.8,90.76,90.89,91.04,91.14,91.13,91.135,91.1,91.07,91.01,90.99,91.13,91.17,91.16,91.09,91.04,90.96,90.81,90.885,90.94,90.77,90.78,90.66,90.61,90.585,90.54,90.54,90.55,90.45,90.51,90.539,90.6,90.55,90.67,90.63,90.71,90.67,90.63,90.72,90.65,90.72,90.749,90.81,90.82,90.77,90.9,90.94,91.0,90.97,90.985,90.981,91.01,90.96,90.89,90.86,90.87,90.73,90.65,90.6,90.575,90.57,90.635,90.59,90.54,90.517,90.64,90.64,90.71,90.76,90.71,90.67,90.685,90.715,90.67,90.67,90.65,90.64,90.615,90.645,90.66,90.75,90.76,90.72,90.75,90.78,90.71,90.65,90.68,90.67,90.67,90.71,90.75,90.8,90.78,90.66,90.612,90.63,90.61,90.68,90.65,90.66,90.81,90.745,90.89,90.85,90.88,90.85,90.85,90.84,90.86,90.91,90.92,90.89,90.9,90.92,90.88,90.905,90.91,90.9,90.88,90.84,90.88,90.93,90.915,90.895,90.93,90.9,90.89,91.0,91.14,91.21,91.22,91.265,91.29,91.28,91.33,91.4,91.38,91.37,91.34,91.38,91.36,91.34,91.26,91.245,91.21,91.19,91.135,91.155,91.21,91.205,91.21,91.23,91.275,91.275,91.33,91.185,91.22,91.26,91.184,91.22,91.21,91.225,91.135,91.17,91.09,91.1,91.155,91.12,91.136,91.13,91.18,91.215,91.24,91.243,91.235,91.302,91.28,91.26,91.165,91.205,91.19,91.19,91.205,91.2,91.32,91.328,91.316,91.395,91.44,91.41,91.43,91.43,91.43,91.59,91.61,91.7,91.605,91.625,91.56,91.6,91.68,91.64,91.63,91.61,91.59,91.64,91.675,91.75,91.79,91.73,91.8,91.81,91.725,91.72,91.64,91.62,91.63,91.59,91.624,91.46,91.545,91.55,91.57,91.59,91.62,91.7,91.698,91.655,91.67,91.8,91.85,91.79,91.805,91.82,91.77,91.65,91.64,91.5,91.48,91.55,91.565,91.45,91.54,91.42,91.425,91.407,91.28,91.235,91.25,91.26,91.21,91.175,91.225,91.19,91.23,91.37,91.43,91.49,91.39,91.34,91.32,91.29,91.38,91.34,91.26
2019-05-07,89.945,89.955,89.95,89.97,89.96,89.87,89.99,90.7,90.68,90.71,90.29,90.62,90.67,90.55,90.45,90.43,90.51,90.3,90.15,89.94,89.75,89.84,90.33,90.31,90.38,90.42,90.67,90.7,90.66,90.71,90.68,90.52,90.6,90.62,90.8,90.73,90.665,90.78,90.88,90.72,90.74,90.87,91.0,91.02,91.15,91.05,90.995,90.95,90.97,91.07,91.28,91.21,91.25,91.22,91.16,91.18,91.33,91.249,91.41,91.32,91.33,91.085,91.07,90.89,90.61,90.457,90.47,90.575,90.696,90.67,90.9,90.95,91.03,90.88,90.87,90.955,90.87,90.75,90.81,90.53,90.67,90.59,90.6,90.62,90.6,90.59,90.64,90.55,90.587,90.56,90.8,90.56,90.45,90.47,90.485,90.44,90.5,90.47,90.55,90.55,90.67,90.7,90.64,90.75,90.7,90.72,90.75,90.67,90.72,90.719,90.58,90.655,90.61,90.64,90.67,90.65,90.7,90.85,90.89,91.0,91.04,91.11,91.135,90.96,90.88,90.75,90.79,90.63,90.725,90.74,90.91,90.795,90.874,90.78,90.85,90.96,90.94,90.89,90.88,90.84,90.65,90.675,90.745,90.715,90.75,90.7,90.635,90.63,90.525,90.43,90.505,90.49,90.445,90.495,90.6,90.665,90.75,90.84,90.8,90.77,90.825,90.84,90.83,90.81,90.725,90.766,90.74,90.745,90.78,90.745,90.76,90.73,90.78,90.78,90.75,90.765,90.73,90.72,90.86,90.885,90.87,90.91,90.97,90.91,90.85,90.93,90.93,90.93,90.95,90.93,90.87,90.885,90.92,90.9,90.89,90.91,90.926,90.925,90.92,90.92,90.9,90.99,90.96,90.82,90.8,90.71,90.675,90.61,90.73,90.71,90.7,90.7,90.71,90.64,90.645,90.54,90.66,90.49,90.41,90.42,90.35,90.41,90.484,90.53,90.52,90.51,90.46,90.6,90.52,90.41,90.35,90.36,90.36,90.31,90.43,90.43,90.45,90.39,90.33,90.38,90.28,90.25,90.295,90.415,90.53,90.45,90.46,90.33,90.3,90.355,90.3,90.225,90.27,90.24,90.29,90.28,90.3,90.4,90.43,90.5,90.5,90.56,90.59,90.585,90.57,90.495,90.63,90.54,90.53,90.505,90.58,90.62,90.605,90.54,90.635,90.76,90.775,90.79,90.78,90.79,90.81,90.77,90.81,90.84,90.77,90.785,90.73,90.66,90.69,90.715,90.71,90.76,90.76,90.655,90.64,90.68,90.6,90.61,90.53,90.56,90.56,90.47,90.463,90.465,90.515,90.62,90.6,90.73,90.695,90.685,90.793,90.76,90.69,90.62,90.63,90.66,90.615,90.65,90.615,90.6,90.655,90.7,90.715,90.8,90.97,90.97,91.0,91.07,91.07,91.045,91.06,91.025,90.955,90.95,90.91,90.93,90.88,90.96,91.04,91.12,91.19,91.24,91.32,91.3,91.26,91.23,91.2,91.26,91.24,91.16,91.19,91.165,91.15,91.095,91.04,91.06,91.05,91.05,91.08,91.05,91.06,91.05,91.08,91.05,91.02,91.01,91.025,91.01,91.03,91.07,91.155,91.185,91.305,91.34,91.43,91.48,91.41,91.48,91.515,91.45,91.485,91.53,91.58,91.7,91.7,91.78,91.68,91.74,91.71,91.8
2019-05-08,91.64,92.01,91.99,92.07,92.34,92.53,92.7,92.86,92.61,92.61,92.785,92.835,92.85,92.73,92.91,93.22,93.32,93.382,93.5,93.365,93.21,93.41,93.66,93.68,93.3,93.2,93.075,93.14,93.2,93.33,93.46,93.495,93.28,93.335,93.455,93.4,93.56,93.63,93.635,93.67,93.38,93.42,93.523,93.375,93.52,93.52,93.47,93.38,93.33,93.358,93.51,93.44,93.59,93.645,93.74,93.66,93.63,93.61,93.49,93.41,93.76,93.61,93.4,93.4,93.4,93.39,93.43,93.51,93.56,93.61,93.57,93.56,93.609,93.68,93.68,93.64,93.74,93.82,93.83,93.78,93.8,93.8,93.77,93.6,93.68,93.56,93.54,93.6,93.64,93.96,94.185,94.06,94.11,94.31,94.33,94.49,94.5,94.64,94.58,94.41,94.39,94.185,94.25,94.45,94.49,94.485,94.46,94.31,94.45,94.33,94.305,94.25,94.225,94.13,94.06,94.07,94.015,93.98,93.94,93.93,94.0,94.03,94.0,93.83,93.95,93.97,93.99,93.87,93.8,93.75,93.75,93.76,93.82,93.75,93.815,93.88,93.91,93.88,93.92,94.0,93.92,93.92,94.01,93.92,93.97,93.99,94.06,94.14,94.075,94.01,94.02,93.92,93.86,93.76,93.83,93.92,93.95,93.88,93.85,93.73,93.75,93.72,93.8,93.68,93.73,93.73,93.76,93.8,93.79,93.72,93.72,93.75,93.82,93.81,93.81,93.82,93.82,93.87,93.91,93.838,93.78,93.67,93.69,93.66,93.669,93.635,93.67,93.67,93.57,93.55,93.58,93.6,93.48,93.53,93.55,93.576,93.58,93.7,93.74,93.78,93.79,93.78,93.74,93.7,93.68,93.67,93.73,93.77,93.77,93.76,93.76,93.74,93.77,93.81,93.79,93.71,93.77,93.83,93.78,93.82,93.795,93.795,93.76,93.75,93.775,93.71,93.67,93.68,93.62,93.63,93.72,93.735,93.78,93.81,93.765,93.79,93.815,93.8,93.745,93.71,93.68,93.71,93.71,93.8,93.8,93.749,93.74,93.81,93.81,93.82,93.83,93.77,93.825,93.82,93.807,93.84,93.82,93.7,93.73,93.765,93.79,93.79,93.82,93.74,93.72,93.72,93.77,93.8,93.79,93.82,93.78,93.69,93.71,93.74,93.73,93.685,93.69,93.74,93.85,93.79,93.76,93.77,93.7,93.67,93.665,93.67,93.72,93.72,93.66,93.68,93.69,93.72,93.77,93.82,93.91,93.99,94.01,94.032,94.05,94.16,94.125,94.14,94.14,94.23,94.22,94.265,94.185,94.2,94.2,94.27,94.3,94.24,94.19,94.23,94.3,94.185,94.16,94.15,94.12,94.225,94.175,94.16,94.165,94.25,94.28,94.255,94.15,94.162,94.265,94.2,94.247,94.195,94.255,94.15,94.15,94.11,94.21,94.21,94.12,94.17,94.215,94.206,94.21,94.35,94.24,94.14,94.125,94.185,94.26,94.34,94.39,94.37,94.34,94.26,94.33,94.36,94.41,94.44,94.42,94.37,94.38,94.38,94.41,94.42,94.37,94.439,94.465,94.38,94.36,94.38,94.41,94.3,94.27,94.294,94.275,94.285,94.235,94.27,94.3,94.28,94.14,94.23,94.23,94.215,94.185,94.09,94.14,94.14,94.15,94.05
2019-05-09,92.18,92.69,92.945,92.84,92.99,92.79,92.82,92.87,93.08,93.27,93.19,93.22,93.0,92.76,92.66,92.595,92.57,92.6,92.57,92.595,92.32,92.17,92.3,92.41,92.31,92.36,92.41,92.5,92.62,92.85,92.8,92.73,92.64,92.76,92.83,92.84,92.83,92.935,92.98,92.95,92.845,92.97,92.9,92.87,92.9,92.87,92.72,92.64,92.64,92.48,92.62,92.695,92.7,92.77,92.78,92.72,92.808,92.81,92.925,93.16,93.07,93.1,93.015,93.07,93.0,92.98,92.94,92.82,92.77,92.765,92.79,92.86,93.13,93.22,93.23,93.295,93.36,93.42,93.42,93.385,93.39,93.43,93.42,93.42,93.37,93.45,93.39,93.4,93.36,93.385,93.49,93.49,93.46,93.483,93.62,93.54,93.56,93.49,93.578,93.64,93.78,93.755,93.76,93.85,93.89,93.75,93.63,93.53,93.56,93.6,93.55,93.47,93.39,93.33,93.4,93.33,93.21,93.165,93.2,93.24,93.28,93.32,93.42,93.44,93.445,93.45,93.54,93.44,93.64,93.66,93.765,93.54,93.61,93.68,93.73,93.79,93.71,93.8,93.82,93.885,93.87,93.75,93.715,93.695,93.78,93.92,93.88,93.785,93.78,93.9,93.99,93.91,93.89,93.79,93.866,93.85,93.84,93.94,93.95,93.97,93.92,93.99,93.96,93.98,93.99,93.95,94.015,94.125,94.15,94.18,94.04,93.99,94.07,94.09,93.97,94.24,94.24,94.2,94.29,94.3,94.39,94.53,94.59,94.54,94.579,94.65,94.71,94.69,94.73,94.77,94.85,94.87,94.62,94.65,94.73,94.742,94.64,94.605,94.56,94.61,94.57,94.53,94.68,94.78,94.72,94.76,94.81,94.75,94.83,94.86,95.002,95.02,95.1,95.05,95.0,94.98,94.86,94.83,94.761,94.77,94.78,94.61,94.71,94.79,94.77,94.69,94.63,94.55,94.49,94.54,94.48,94.55,94.517,94.53,94.555,94.6,94.62,94.565,94.66,94.66,94.66,94.65,94.693,94.64,94.67,94.69,94.71,94.6,94.62,94.65,94.61,94.66,94.68,94.69,94.61,94.61,94.57,94.58,94.719,94.79,94.72,94.72,94.73,94.64,94.64,94.665,94.71,94.71,94.715,94.72,94.83,94.81,94.63,94.59,94.61,94.72,94.79,94.72,94.71,94.73,94.85,94.79,94.75,94.79,94.78,94.79,94.75,94.75,94.71,94.68,94.73,94.7,94.71,94.74,94.7,94.64,94.545,94.44,94.52,94.46,94.43,94.5,94.58,94.51,94.393,94.445,94.385,94.37,94.47,94.44,94.46,94.505,94.51,94.43,94.41,94.345,94.34,94.33,94.275,94.27,94.32,94.37,94.37,94.38,94.345,94.34,94.28,94.26,94.19,94.22,94.12,94.11,94.11,94.2,94.16,94.17,94.125,94.007,93.92,93.9,93.91,93.94,94.005,94.02,93.97,94.02,94.02,93.98,94.02,94.02,94.07,94.09,94.12,94.155,94.18,94.145,94.145,94.15,94.15,94.23,94.285,94.3,94.39,94.34,94.41,94.32,94.27,94.38,94.37,94.39,94.325,94.28,94.27,94.31,94.325,94.31,94.28,94.31,94.345,94.21,94.38,94.34,94.32,94.32,94.34,94.36,94.36,94.31,94.36,94.26
2019-05-10,94.18,93.66,93.85,94.11,93.98,94.17,94.08,94.115,94.14,94.25,94.21,94.145,94.08,93.85,93.8,93.99,93.97,94.05,94.04,93.78,93.66,93.52,93.685,93.75,93.72,93.72,93.76,93.63,93.762,93.66,93.65,93.55,93.645,93.57,93.51,93.42,93.4,93.355,93.46,93.44,93.41,93.455,93.5,93.32,93.32,93.06,92.905,93.02,92.99,92.91,92.86,92.96,92.92,92.86,92.919,93.04,93.21,93.16,93.115,93.11,93.14,93.045,93.07,93.02,93.0,92.98,92.91,92.92,92.78,92.85,92.745,92.69,92.78,92.81,92.81,93.03,93.025,93.145,93.05,92.95,93.065,93.19,93.16,93.16,93.13,93.12,93.17,93.21,93.27,93.24,93.185,93.2,93.1,93.1,93.17,93.29,93.25,93.275,93.146,93.05,93.095,93.07,93.06,93.205,93.205,93.115,93.19,93.34,93.34,93.48,93.5,93.659,93.66,93.61,93.59,93.55,93.63,93.61,93.62,93.57,93.4,93.4,93.47,93.485,93.46,93.46,93.56,93.47,93.685,93.63,93.56,93.58,93.36,93.3,93.44,93.47,93.405,93.37,93.37,93.305,93.33,93.553,93.6,93.475,93.6,93.57,93.585,93.61,93.63,93.61,93.75,93.71,93.66,93.72,93.65,93.62,93.61,93.53,93.53,93.555,93.57,93.595,93.84,93.79,93.693,93.77,93.88,93.78,93.848,93.81,93.81,93.82,93.89,93.96,93.86,93.89,93.95,93.99,94.054,94.14,94.15,94.13,94.18,94.3,94.34,94.35,94.41,94.25,94.21,94.23,94.225,94.07,94.14,94.13,94.18,94.19,94.1,94.18,94.14,94.05,94.12,94.17,94.256,94.32,94.3,94.34,94.2,94.26,94.27,94.35,94.3,94.381,94.5,94.415,94.425,94.365,94.35,94.39,94.34,94.44,94.42,94.39,94.43,94.33,94.3,94.32,94.21,94.26,94.38,94.39,94.49,94.5,94.53,94.42,94.46,94.5,94.48,94.48,94.51,94.46,94.49,94.51,94.58,94.59,94.6,94.61,94.55,94.48,94.475,94.55,94.58,94.57,94.48,94.49,94.58,94.58,94.58,94.57,94.66,94.65,94.61,94.6,94.57,94.61,94.58,94.51,94.52,94.49,94.57,94.57,94.58,94.56,94.625,94.64,94.66,94.64,94.71,94.705,94.7,94.678,94.72,94.68,94.65,94.58,94.51,94.44,94.47,94.43,94.35,94.24,94.25,94.2,94.12,94.13,94.1,94.03,94.16,94.18,94.21,94.24,94.16,94.22,94.28,94.273,94.25,94.23,94.29,94.3,94.36,94.41,94.415,94.387,94.35,94.39,94.41,94.38,94.39,94.44,94.395,94.41,94.46,94.47,94.55,94.55,94.52,94.51,94.54,94.581,94.575,94.67,94.67,94.71,94.74,94.68,94.78,94.79,94.76,94.73,94.675,94.76,94.765,94.783,94.77,94.74,94.82,94.804,94.9,94.96,95.05,95.11,95.14,95.02,95.14,95.15,95.085,95.16,95.25,95.17,95.22,95.15,95.115,95.01,94.975,94.93,94.87,94.714,94.78,94.76,94.78,94.71,94.69,94.67,94.68,94.63,94.6,94.71,94.76,94.71,94.65,94.64,94.72,94.695,94.75,94.825,94.8,94.83,94.85,94.89,94.95,95.03
2019-05-13,94.23,94.36,93.73,94.02,94.37,94.665,94.513,94.615,94.63,94.6,94.52,94.75,94.66,94.67,94.49,94.501,94.55,94.72,94.84,94.705,94.37,94.45,94.44,94.41,94.28,94.27,94.308,94.38,94.38,94.37,94.32,94.18,94.09,94.12,94.085,94.07,93.97,94.07,93.905,93.815,93.606,93.67,93.683,93.77,93.84,93.731,93.89,94.155,94.21,94.135,93.99,93.85,93.996,94.01,94.09,94.18,94.05,94.12,94.215,94.28,94.26,94.392,94.355,94.34,94.41,94.56,94.585,94.39,94.615,94.89,94.91,95.08,95.215,95.26,95.21,95.22,95.175,95.11,94.91,94.82,94.83,94.85,94.875,94.792,94.68,94.715,94.69,94.68,94.74,94.93,94.98,94.66,94.648,94.54,94.5,94.465,94.51,94.7,94.58,94.53,94.475,94.545,94.445,94.42,94.24,94.26,94.056,94.02,94.055,94.05,94.14,94.15,94.07,94.34,94.095,94.01,94.04,93.895,93.98,93.999,94.15,93.97,93.99,94.01,93.99,93.97,93.945,93.79,93.78,93.77,93.66,93.83,93.898,93.83,93.86,93.92,93.92,93.8,93.82,93.87,93.78,93.69,93.698,93.575,93.585,93.67,93.743,93.78,93.73,93.83,93.775,93.86,93.85,93.785,93.79,93.78,93.815,93.805,93.67,93.625,93.77,93.69,93.65,93.77,93.67,93.63,93.63,93.75,93.78,93.81,93.755,93.84,93.89,93.78,93.8,93.87,93.9,93.83,93.89,93.81,93.62,93.67,93.69,93.91,93.695,93.87,93.823,93.95,94.0,94.0,93.96,93.88,93.835,93.8,93.9,93.93,93.96,94.06,94.05,93.97,94.055,94.04,94.06,93.999,94.01,93.83,93.737,93.96,93.99,93.9,93.84,93.74,93.7,93.84,93.83,93.74,93.73,93.81,93.625,93.567,93.62,93.7,93.76,93.78,93.673,93.68,93.62,93.865,93.855,93.77,93.69,93.8,93.75,93.82,93.91,93.81,93.79,93.725,93.69,93.64,93.85,93.875,93.88,93.715,93.78,93.805,93.83,93.85,93.921,93.9,93.82,93.805,93.78,93.695,93.7,93.62,93.63,93.54,93.65,93.7,93.611,93.63,93.63,93.59,93.635,93.65,93.68,93.57,93.67,93.65,93.688,93.695,93.74,93.8,93.81,93.825,93.835,93.89,93.86,93.87,93.75,93.72,93.68,93.7,93.63,93.545,93.57,93.6,93.74,93.56,93.635,93.64,93.56,93.54,93.62,93.9,93.88,93.97,93.903,93.77,93.88,93.78,93.84,93.69,93.71,93.66,93.643,93.66,93.71,93.709,93.68,93.715,93.67,93.53,93.61,93.636,93.69,93.76,93.86,93.77,93.8,93.76,93.81,93.84,93.855,93.87,93.86,93.95,93.94,93.83,93.91,93.84,93.82,93.69,93.73,93.63,93.68,93.66,93.745,93.61,93.7,93.65,93.62,93.5,93.418,93.47,93.49,93.48,93.42,93.405,93.345,93.32,93.261,93.39,93.33,93.3,93.25,93.25,93.375,93.3,93.33,93.325,93.375,93.35,93.365,93.4,93.33,93.35,93.35,93.39,93.32,93.36,93.34,93.36,93.32,93.345,93.396,93.45,93.48,93.45,93.45,93.435,93.47,93.38,93.425,93.56,93.52,93.51,93.61,93.48
2019-05-14,94.1,94.49,94.49,94.53,94.55,94.56,94.55,94.51,94.48,94.455,94.38,94.405,94.43,94.495,94.465,94.67,94.47,94.511,94.595,94.24,94.09,94.085,94.15,94.14,94.03,94.29,94.28,94.395,94.41,94.44,94.52,94.71,94.75,94.51,94.525,94.53,94.66,94.695,94.705,94.73,94.585,94.647,94.65,94.45,94.43,94.6,94.63,94.67,94.81,94.86,94.93,94.905,94.95,94.885,94.895,94.84,94.84,94.937,95.06,95.015,95.0,95.0,95.12,95.17,95.03,95.09,95.04,95.0,95.067,95.12,95.11,95.12,95.087,95.06,95.018,95.055,95.06,95.06,94.99,95.01,94.92,94.97,94.87,94.807,94.71,94.73,94.69,94.605,94.65,94.62,94.66,94.61,94.54,94.44,94.55,94.71,94.84,94.82,94.74,94.66,94.67,94.73,94.74,94.695,94.8,94.79,94.77,94.858,94.93,94.96,94.96,94.865,94.775,94.84,94.97,94.865,94.9,94.81,94.79,94.82,94.8,94.88,94.855,94.8,94.855,94.99,94.98,94.96,94.922,94.78,94.92,94.945,94.99,94.855,94.84,94.88,94.85,94.89,95.02,95.005,94.94,95.03,95.06,95.18,95.12,95.24,95.2,95.13,95.07,95.08,95.07,95.12,95.13,95.18,95.31,95.27,95.235,95.23,95.14,95.19,95.13,95.066,95.09,95.13,95.11,94.98,95.05,95.02,94.905,94.91,94.88,94.96,94.94,94.91,94.75,94.81,94.81,94.8,94.84,94.81,94.85,94.87,94.92,94.96,94.98,94.96,94.95,95.0,95.03,95.01,95.05,95.09,95.06,95.08,94.98,95.05,95.0,95.03,95.05,95.1,95.07,95.08,95.09,95.13,95.15,95.11,95.12,95.112,95.057,95.07,95.08,95.05,95.04,95.03,95.01,95.02,95.09,95.12,95.095,95.06,95.15,95.133,95.23,95.206,95.25,95.26,95.24,95.185,95.23,95.17,95.15,95.12,95.19,95.19,95.2,95.185,95.19,95.19,95.165,95.18,95.17,95.165,95.17,95.12,95.11,95.15,95.13,95.11,95.09,95.05,95.04,94.99,94.915,94.93,94.935,94.88,94.88,94.88,94.86,94.87,94.945,94.88,94.89,94.93,,94.99,94.97,94.99,94.95,94.94,94.91,94.93,94.81,94.795,94.774,94.83,94.74,94.695,94.71,94.78,94.74,94.843,94.81,94.85,94.855,94.806,94.85,94.83,94.81,94.775,94.76,94.76,94.715,94.8,94.81,94.78,94.72,94.7,94.75,94.655,94.62,94.61,94.63,94.62,94.64,94.61,94.59,94.58,94.62,94.63,94.66,94.595,94.57,94.59,94.6,94.55,94.475,94.39,94.41,94.355,94.3,94.26,94.325,94.31,94.222,94.325,94.35,94.35,94.34,94.35,94.34,94.375,94.43,94.451,94.475,94.437,94.43,94.43,94.46,94.55,94.44,94.47,94.43,94.4,94.41,94.35,94.28,94.31,94.39,94.36,94.389,94.36,94.31,94.28,94.295,94.3,94.42,94.44,94.48,94.438,94.28,94.34,94.36,94.22,94.19,94.22,94.16,94.14,94.179,94.2,94.19,94.13,94.19,94.26,94.24,94.1,94.21,94.28,94.28,94.34,94.3,94.27,94.23,94.24,94.38,94.33,94.22,94.3,94.28,94.34
2019-05-15,93.76,93.63,93.452,93.424,93.615,93.617,93.83,93.817,93.58,93.785,93.705,93.77,93.69,93.73,93.53,93.67,93.75,93.921,93.83,93.8,93.73,93.68,93.59,93.71,93.76,93.865,93.64,93.74,93.495,93.55,93.59,93.52,93.44,93.4,93.36,93.33,93.3,93.36,93.365,93.32,93.37,93.44,93.195,93.46,93.9,93.77,93.66,93.59,93.54,93.58,93.54,93.63,93.534,93.505,93.52,93.61,93.69,93.695,93.61,93.68,93.63,93.64,93.816,93.81,93.75,93.61,93.69,93.75,93.7,93.75,93.8,93.735,93.86,93.8,93.89,93.92,93.99,94.01,93.92,93.99,93.95,94.07,94.12,94.1,94.01,94.07,93.9,93.975,93.99,93.905,93.838,93.72,93.65,93.65,93.665,93.7,93.75,93.74,93.81,93.79,93.91,93.92,94.0,94.01,94.015,94.02,94.05,94.03,94.0,94.095,94.1,94.03,94.05,94.08,94.185,94.34,94.29,94.3,94.345,94.39,94.33,94.15,94.19,94.28,94.27,94.19,94.14,94.145,94.19,94.18,94.25,94.26,94.36,94.32,94.34,94.22,94.245,94.24,94.23,94.25,94.25,94.29,94.27,94.3,94.29,94.306,94.29,94.34,94.39,94.414,94.52,94.52,94.51,94.55,94.535,94.54,94.51,94.51,94.535,94.56,94.46,94.535,94.455,94.475,94.52,94.42,94.4,94.43,94.4,94.36,94.4,94.401,94.391,94.35,94.32,94.31,94.32,94.31,94.442,94.39,94.44,94.46,94.45,94.44,94.5,94.36,94.35,94.336,94.32,94.31,94.29,94.29,94.24,94.23,94.24,94.25,94.19,94.17,94.21,94.25,94.3,94.26,94.26,94.28,94.41,94.44,94.34,94.31,94.29,94.26,94.265,94.28,94.33,94.34,94.36,94.35,94.31,94.31,94.36,94.3,94.315,94.24,94.25,94.24,94.18,94.24,94.2,94.2,94.17,94.18,94.16,94.155,94.135,94.105,94.04,94.11,94.12,94.14,94.15,94.16,94.188,94.255,94.255,94.255,94.325,94.255,94.31,94.36,94.34,94.38,94.4,94.34,94.33,94.32,94.25,94.2,94.2,94.17,94.2,94.2,94.19,94.19,94.21,94.205,94.225,94.22,94.19,94.2,94.2,94.19,94.17,94.175,94.16,94.16,94.23,94.22,94.19,94.235,94.23,94.272,94.275,94.19,94.22,94.14,94.14,94.17,94.28,94.26,94.2,94.19,94.22,94.31,94.33,94.36,94.37,94.32,94.335,94.29,94.28,94.29,94.24,94.216,94.26,94.24,94.27,94.26,94.2,94.155,94.12,94.18,94.175,94.22,94.195,94.29,94.35,94.365,94.34,94.36,94.38,94.37,94.37,94.39,94.36,94.33,94.24,94.19,94.31,94.21,94.215,94.19,94.26,94.275,94.231,94.13,94.155,94.16,94.11,94.13,94.09,94.075,94.09,94.05,94.12,94.13,94.11,94.13,94.2,94.15,94.29,94.325,94.34,94.35,94.29,94.31,94.36,94.37,94.37,94.38,94.4,94.445,94.46,94.38,94.39,94.38,94.445,94.475,94.41,94.51,94.47,94.495,94.49,94.54,94.59,94.58,94.56,94.585,94.55,94.55,94.53,94.55,94.58,94.61,94.62,94.6,94.6,94.48,94.445,94.5,94.48,94.385
2019-05-16,95.395,95.27,95.237,95.61,95.34,95.27,95.53,95.18,95.21,95.34,95.52,95.5,95.75,95.43,95.15,94.9,94.86,94.85,95.125,95.08,95.08,95.13,95.36,95.49,95.7,95.735,95.68,95.64,95.62,95.63,95.49,95.52,95.56,95.555,95.55,95.51,95.47,95.615,95.55,95.6,95.465,95.36,95.31,95.33,95.44,95.44,95.4,95.39,95.39,95.375,95.37,95.41,95.36,95.43,95.53,95.52,95.44,95.34,95.5,95.59,95.67,95.62,95.56,95.53,95.57,95.55,95.61,95.59,95.63,95.78,95.785,95.735,,95.84,95.6,95.64,95.665,95.69,95.64,95.73,95.61,95.505,95.56,95.7,95.59,95.65,95.59,95.659,95.685,95.75,95.86,95.95,96.06,96.09,95.907,95.832,95.96,95.97,95.92,95.92,95.815,95.9,95.92,95.83,95.896,95.945,95.98,96.05,96.01,96.03,96.015,96.035,96.05,96.05,96.0,95.94,95.98,96.04,95.98,95.98,96.01,96.07,95.97,96.01,96.0,95.95,95.774,95.81,95.87,95.93,95.97,95.98,95.98,95.99,95.92,95.98,95.945,95.937,95.93,95.93,96.05,95.98,95.97,96.05,95.98,96.07,96.08,96.18,96.25,96.19,96.16,96.22,96.14,96.12,96.05,96.06,96.15,96.181,96.15,96.07,96.07,96.03,95.98,96.09,96.04,95.99,95.98,96.04,96.02,96.0,95.92,95.89,95.92,95.906,95.925,95.88,95.93,95.93,95.87,95.88,95.92,95.901,95.935,95.915,95.95,96.0,96.01,95.94,96.03,95.99,95.96,95.95,95.96,95.94,95.88,95.88,95.88,95.87,95.84,95.85,95.874,95.85,95.83,95.885,95.84,95.89,95.91,95.88,95.9,95.82,95.86,95.823,95.77,95.73,95.7,95.68,95.79,95.78,95.82,95.76,95.78,95.83,95.85,95.82,95.78,95.785,95.75,95.74,95.77,95.825,95.76,95.75,95.79,95.77,95.76,95.74,95.77,95.77,95.765,95.76,95.755,95.8,95.82,,95.81,95.76,95.735,95.72,95.68,95.68,95.68,95.62,95.61,95.627,95.618,95.7,95.68,95.56,95.56,95.49,95.475,95.48,95.45,95.46,95.465,95.495,95.55,95.58,95.55,95.64,95.63,95.68,95.67,95.685,95.7,95.7,95.675,95.61,95.68,95.62,95.58,95.62,95.59,95.63,95.62,95.687,95.66,95.71,95.73,95.73,95.7,95.7,95.695,95.75,95.81,95.79,95.77,95.75,95.7,95.72,95.68,95.68,95.64,95.65,95.65,95.68,95.69,95.73,95.82,95.84,95.81,95.845,95.845,95.85,95.93,95.91,95.92,95.86,95.84,95.82,95.83,95.76,95.76,95.71,95.67,95.6,95.62,95.62,95.59,95.62,95.56,95.6,95.55,95.595,95.65,95.72,95.68,95.55,95.56,95.57,95.53,95.53,95.49,95.45,95.43,95.49,95.49,95.43,95.37,95.39,95.44,95.455,95.515,95.5,95.545,95.537,95.62,95.55,95.635,95.58,95.5,95.51,95.5,95.48,95.485,95.485,95.48,95.374,95.29,95.295,95.23,95.06,95.1,95.06,95.05,95.11,95.12,95.04,95.04,95.11,95.16,95.21,95.255,95.35,95.335,95.265,95.22,95.225,95.26,95.18
2019-05-17,94.41,94.55,94.62,94.457,94.49,94.475,94.515,94.39,94.31,94.27,94.26,94.26,94.3,94.3,94.31,94.32,94.28,94.32,94.23,94.24,94.06,94.02,94.03,93.92,,94.21,94.11,94.12,94.16,94.22,94.302,94.26,94.18,94.15,94.108,94.05,94.07,93.96,94.045,94.038,94.04,93.96,93.906,93.84,93.83,93.83,93.83,93.79,93.92,93.97,94.04,94.07,94.12,94.14,94.162,94.07,94.055,94.06,94.025,93.93,93.954,93.87,93.9,93.855,93.87,93.72,93.54,93.545,93.495,93.39,93.365,93.36,93.35,93.45,93.445,93.405,93.275,93.35,93.35,93.48,93.68,93.72,93.695,93.84,93.905,93.98,94.08,94.13,93.95,93.9,93.98,93.89,93.98,93.96,93.97,94.08,94.13,94.21,94.04,93.97,93.94,93.93,93.95,94.084,94.005,93.985,94.0,94.09,94.15,94.24,94.13,94.135,94.1,94.1,94.031,93.99,93.88,93.865,93.84,93.82,93.78,93.71,93.771,93.69,93.78,93.778,93.83,93.77,93.78,93.73,93.67,93.66,93.59,93.48,93.522,93.595,93.635,93.56,93.54,93.545,93.56,93.62,93.56,93.67,93.69,93.63,93.71,93.68,93.725,93.793,93.68,93.74,93.79,93.81,93.8,93.62,93.71,93.7,93.65,93.57,93.513,93.4,93.42,93.45,93.34,93.33,93.335,93.32,93.44,93.37,93.38,93.355,93.41,93.415,93.38,93.39,93.31,93.315,93.25,93.2,93.13,93.095,93.07,93.06,93.02,93.07,93.09,93.105,93.09,93.105,93.015,93.11,93.162,93.12,93.09,93.13,93.1,93.03,92.995,93.01,92.985,92.99,93.01,93.01,93.04,93.0,92.995,92.93,92.89,92.868,92.855,92.87,92.911,92.91,92.85,92.914,92.91,92.93,92.96,92.99,93.0,92.97,92.96,92.92,92.9,92.96,93.05,93.015,93.05,93.01,93.03,93.09,93.05,93.08,93.03,93.04,93.08,93.089,93.085,93.02,93.01,93.06,93.15,93.16,93.22,93.32,93.3,93.33,93.28,93.36,93.4,93.26,93.22,93.24,93.282,93.31,,93.358,93.41,93.43,93.46,93.5,93.48,93.41,93.37,93.35,93.39,93.39,93.45,93.47,93.48,93.33,93.34,93.295,93.27,93.26,93.33,93.29,93.27,93.22,93.15,93.08,93.07,93.04,93.04,93.0,93.03,92.97,93.01,93.0,93.01,92.98,93.0,93.02,93.003,92.99,92.91,92.92,92.905,92.9,92.87,92.89,92.932,92.95,93.05,93.04,93.03,93.18,93.16,93.09,93.07,93.01,93.03,93.081,93.06,93.13,93.11,93.11,93.114,93.13,93.1,93.14,93.21,93.27,93.265,93.292,93.37,93.36,93.37,93.36,93.38,93.11,93.14,93.16,93.05,92.96,92.95,92.92,92.89,92.82,92.79,92.9,92.83,92.78,92.81,92.8,92.76,92.79,92.78,92.8,92.845,92.75,92.82,92.85,92.79,92.777,92.79,92.765,92.86,92.85,92.82,92.72,92.73,92.71,92.78,92.805,92.93,92.94,92.96,92.92,92.815,92.81,92.96,92.96,92.99,92.95,92.99,92.96,92.96,92.96,92.96,93.1,93.13,93.06,93.08,93.21,93.205,93.17,93.02,92.99
2019-05-20,93.03,93.143,93.38,93.1,93.23,93.09,93.2,93.165,92.86,92.99,93.1,93.11,93.27,93.377,93.58,93.81,93.792,93.67,93.46,93.5,93.45,93.395,93.31,93.27,93.235,93.4,93.525,93.75,93.59,93.51,93.71,93.87,93.82,93.79,93.78,93.724,93.72,93.735,93.83,93.94,93.98,93.93,94.05,94.11,94.09,94.19,94.25,94.18,94.22,94.1,94.03,94.01,94.15,94.18,94.298,94.37,94.31,94.27,94.3,94.319,94.25,94.23,94.17,94.21,94.25,94.33,94.32,94.28,94.345,94.29,94.38,94.42,94.379,94.45,94.35,94.355,94.21,94.21,94.33,94.18,94.235,94.38,94.36,94.35,94.38,94.47,94.43,94.42,94.48,94.42,94.44,94.24,94.22,94.18,94.13,94.09,94.1,94.05,94.01,93.97,93.96,94.06,94.16,94.06,94.06,94.01,93.955,94.0,93.87,93.73,93.735,93.7,93.63,93.69,93.76,93.655,93.74,93.7,93.76,93.72,93.96,93.836,93.81,93.9,93.89,93.77,93.78,93.77,93.75,93.79,93.935,93.92,93.8,93.825,93.74,93.87,93.9,93.956,93.9,93.91,93.95,93.96,93.905,93.99,93.99,93.96,93.97,93.94,94.0,94.04,94.09,94.07,94.14,94.07,94.08,94.07,94.11,94.07,94.0,93.96,94.12,94.07,94.05,94.04,94.08,94.08,94.06,94.065,94.0,94.03,94.015,94.03,94.07,94.06,94.04,94.06,94.0,94.0,93.98,93.97,93.987,93.9,93.93,93.9,93.95,94.06,94.09,94.05,94.03,93.955,93.94,93.94,93.97,94.0,93.97,94.02,94.083,93.98,94.0,93.973,93.94,93.96,93.98,93.93,93.931,93.92,93.89,93.865,93.81,93.85,93.8,93.75,93.776,93.72,93.67,93.74,93.78,93.78,93.77,93.74,93.75,93.76,93.71,93.71,93.63,93.67,93.73,93.69,93.72,93.74,93.73,93.725,93.73,93.73,93.68,93.7,93.63,93.6,93.56,93.57,93.56,93.55,93.58,93.59,93.59,93.565,93.58,93.6,93.53,93.56,93.59,93.63,93.61,93.57,93.49,93.53,93.47,93.53,93.54,93.54,93.49,93.46,93.4,93.38,93.386,93.41,93.35,93.35,93.42,93.46,93.43,93.39,93.35,93.341,93.382,93.4,93.45,93.41,93.37,93.35,93.41,93.46,93.47,93.53,93.495,93.5,93.5,93.53,93.49,93.45,93.48,93.5,93.52,93.48,93.52,93.57,93.6,93.55,93.56,93.54,93.56,93.56,93.55,93.53,93.57,93.56,93.58,93.577,,93.56,93.58,93.61,93.62,93.59,,93.53,93.58,93.6,93.55,93.59,93.58,93.596,,93.55,93.58,93.55,93.59,93.56,93.56,93.54,93.52,93.47,93.43,93.39,93.35,93.36,93.43,93.37,93.38,93.374,93.36,93.32,93.36,93.31,93.37,93.38,93.41,93.52,93.5,93.5,93.51,93.55,93.51,93.47,93.47,93.4,93.4,93.425,93.42,93.46,93.498,93.56,93.61,93.6,93.644,93.64,93.73,93.76,93.68,93.705,93.64,93.7,93.663,93.62,93.6,93.62,93.605,93.565,93.57,93.52,93.56,93.535,93.59,93.635,93.655,93.73,93.77,93.62,93.56,93.66
2019-05-21,94.3,94.31,94.2,94.279,94.19,94.11,94.33,94.405,94.38,94.49,94.45,94.72,94.805,94.842,94.67,94.67,94.76,94.78,94.94,94.955,95.02,95.03,95.05,95.03,94.99,95.026,95.14,95.05,95.045,95.05,95.025,95.19,95.23,95.25,95.15,95.175,95.115,95.2,95.135,95.03,95.035,95.08,95.18,95.105,95.04,95.16,95.19,95.13,95.03,95.0,95.02,94.91,94.955,94.84,94.854,94.88,95.035,94.92,94.82,94.89,94.9,94.85,94.87,94.98,94.957,94.92,94.83,94.81,94.73,94.77,94.73,94.73,94.91,94.82,94.91,94.9,94.96,95.025,94.99,94.92,94.875,94.9,94.98,94.968,94.945,94.98,94.985,95.09,95.01,95.075,95.175,95.1,95.075,95.08,95.0,95.19,95.12,95.03,94.94,94.995,94.915,94.865,94.93,94.91,95.01,95.02,94.98,94.96,94.995,95.09,95.04,95.035,95.15,95.16,95.14,95.2,95.19,95.065,95.0,95.05,95.02,95.01,95.04,95.04,95.05,94.96,94.98,94.91,94.85,94.8,94.87,94.871,94.91,94.87,94.8,94.85,94.9,94.92,94.86,94.83,94.76,94.695,94.65,94.588,94.56,94.6,94.61,94.68,94.65,94.74,94.82,94.79,94.76,94.786,94.84,94.83,94.78,94.83,94.8,94.85,94.86,94.88,94.88,94.905,95.0,94.96,94.986,94.88,94.92,94.98,95.02,94.96,95.03,95.015,94.93,94.97,94.95,95.03,94.97,95.01,95.03,95.013,95.03,95.01,95.04,95.03,95.09,95.04,95.04,94.97,95.01,94.99,94.99,94.99,95.03,95.03,95.02,95.02,95.07,95.07,95.07,95.1,95.06,95.01,95.06,95.02,95.0,95.07,95.03,95.03,95.05,95.025,95.064,95.04,95.05,95.01,94.92,94.94,94.91,94.89,94.93,94.94,94.95,94.95,94.94,94.89,94.922,94.92,94.92,94.94,94.93,94.85,94.87,94.88,94.85,94.855,94.91,94.9,94.83,94.91,94.96,94.93,94.94,94.91,94.93,94.89,94.95,94.94,94.95,95.015,94.97,94.947,94.925,94.95,94.93,94.94,95.01,95.03,95.05,95.05,95.02,95.08,95.05,95.03,95.0,95.02,94.99,95.01,94.99,95.005,95.0,95.016,95.1,95.06,95.13,95.14,95.14,95.13,95.18,95.18,95.16,95.17,95.12,95.14,95.16,95.18,95.205,95.19,95.17,95.205,95.15,95.171,95.22,95.24,95.225,95.193,95.18,95.24,95.19,95.175,95.135,95.16,95.14,95.2,95.18,95.19,95.26,95.3,95.28,95.28,95.36,95.44,95.48,95.445,95.47,95.44,95.449,95.49,95.56,95.53,95.57,95.51,95.505,95.56,95.53,95.49,95.47,95.44,95.45,95.46,95.48,95.47,95.418,95.45,95.415,95.45,95.45,95.475,95.505,95.49,,95.47,95.46,95.42,95.431,95.43,95.38,95.37,95.425,95.401,95.42,95.41,95.365,95.375,95.38,95.39,95.43,95.545,95.53,95.57,95.6,95.67,95.68,95.603,95.66,95.72,95.75,95.79,95.86,95.89,95.92,95.9,95.85,95.86,95.89,95.87,95.87,95.925,95.89,95.86,95.88,95.88,95.885,95.88,95.84,95.825,95.78,95.77,95.8,95.7
2019-05-22,94.95,95.09,95.34,95.14,94.91,95.01,94.96,94.975,94.95,94.98,95.05,94.965,94.99,94.966,94.99,94.89,94.86,94.92,94.93,94.95,94.98,94.86,94.99,94.98,94.91,94.97,95.09,94.95,95.15,95.27,95.28,95.27,95.23,95.16,95.2,95.19,95.1,94.97,94.98,,94.95,94.81,94.85,94.76,94.64,94.81,94.91,94.72,94.67,94.668,94.64,94.65,94.63,94.695,94.8,94.72,94.66,94.79,94.77,94.73,94.53,94.43,94.55,94.57,94.529,94.41,94.325,94.215,94.175,94.19,94.14,94.15,94.05,93.98,93.939,93.98,93.98,94.0,93.95,93.83,93.84,93.82,93.85,93.81,93.84,93.8,93.665,93.58,93.59,93.72,93.51,93.52,93.52,93.42,93.41,93.42,93.485,93.5,93.55,93.55,93.59,93.545,93.54,93.522,93.53,93.54,93.63,93.67,93.66,93.61,93.51,93.34,93.4,93.38,93.34,93.325,93.21,93.28,93.36,93.41,93.36,93.425,93.35,93.29,93.21,93.19,93.21,93.12,93.06,93.16,93.145,93.17,93.2,93.245,93.24,93.224,93.19,93.27,93.287,93.35,93.33,93.26,93.14,93.19,93.12,93.11,93.05,93.08,93.03,92.969,92.98,92.92,92.84,92.88,92.855,92.78,92.83,92.855,92.84,92.81,92.815,92.81,92.87,92.8,92.77,92.81,92.75,92.77,92.83,92.841,92.85,92.85,92.93,92.9,92.89,92.91,92.86,92.94,93.0,92.995,92.97,92.91,92.84,92.91,92.91,92.89,92.86,92.9,92.97,93.01,92.88,92.785,92.81,92.87,92.83,92.899,92.75,92.73,92.73,92.72,92.63,92.69,92.675,92.675,92.759,92.82,92.94,92.88,92.849,92.84,92.89,92.79,92.81,92.843,92.71,92.65,92.628,92.61,92.62,92.53,92.57,92.65,92.6,92.6,92.58,92.578,92.594,92.54,92.553,92.58,92.66,92.54,92.559,92.57,92.59,92.591,92.55,92.55,92.67,92.73,92.6,92.64,92.63,92.66,92.62,92.69,92.584,92.6,92.69,92.659,92.85,92.78,92.77,92.83,92.825,92.74,92.724,92.73,92.79,92.82,92.76,92.76,92.755,92.746,92.82,92.92,92.92,92.8,92.81,92.82,92.8,92.75,92.72,92.745,92.63,92.625,92.62,92.62,92.63,92.58,92.6,92.57,92.62,92.592,92.535,92.55,92.545,92.5,92.505,92.53,92.55,92.54,92.53,92.55,92.57,92.6,92.635,92.58,92.57,92.53,92.49,92.495,92.63,92.57,92.6,92.64,92.68,92.67,92.69,92.71,92.67,92.64,92.6,92.62,92.62,92.6,92.59,92.67,92.66,92.69,92.74,92.66,92.67,92.57,92.5,92.52,92.54,92.57,92.44,92.4,92.525,92.535,92.5,92.52,92.6,92.7,92.79,92.765,92.82,92.72,92.75,92.754,92.75,92.7,92.74,92.71,92.7,92.64,92.67,92.7,92.72,92.71,92.73,92.85,92.935,92.95,92.94,92.985,92.965,92.84,92.82,92.83,92.8,92.75,92.77,92.74,92.69,92.75,92.73,92.74,92.73,92.745,92.82,92.82,92.84,92.78,92.793,92.73,92.735,92.77,92.845,92.88,92.96,92.92,92.94,92.96,92.98,93.015,92.97,92.9
2019-05-23,90.39,90.17,90.205,89.82,89.23,89.496,89.31,89.1,89.204,88.8,88.675,88.42,88.41,88.17,88.14,88.115,88.59,88.14,88.82,88.51,88.31,88.397,88.6,88.67,88.443,88.34,88.15,88.56,88.58,88.33,88.369,88.36,88.67,88.64,88.56,88.45,88.565,88.5,88.31,88.23,88.235,88.22,88.09,88.09,88.16,88.16,88.0,88.03,88.01,87.68,87.625,87.61,87.56,87.57,87.54,87.3,87.44,87.33,87.46,87.555,87.42,87.52,87.58,87.74,88.085,87.87,88.005,87.94,87.83,87.98,87.77,87.85,87.87,87.86,87.82,87.859,87.89,87.86,87.95,88.08,87.95,88.01,88.11,88.2,88.21,88.25,88.22,88.255,88.18,88.16,88.145,88.03,88.07,88.26,88.35,88.3,88.3,88.38,88.4,88.41,88.37,88.44,88.53,88.625,88.69,88.59,88.643,88.564,88.59,88.47,88.54,88.59,88.48,88.3,88.29,88.4,88.34,88.25,88.185,88.14,88.06,88.13,88.2,88.09,88.155,88.01,88.04,88.15,88.15,88.17,88.11,88.1,88.08,88.13,88.165,88.104,88.04,88.06,88.06,88.19,88.12,88.141,88.16,88.12,88.02,88.01,88.0,88.06,88.03,88.07,88.06,88.09,88.11,88.25,88.26,88.25,88.26,88.23,88.28,88.16,88.315,88.33,88.29,88.37,88.32,88.3,88.24,88.21,88.18,88.17,88.18,88.065,88.045,88.03,88.095,88.09,88.12,88.09,88.13,88.15,88.17,88.09,88.09,88.1,88.18,88.195,88.12,88.12,88.13,88.07,88.11,88.135,88.143,88.12,88.07,88.05,88.16,88.19,88.19,88.328,88.32,88.33,88.25,88.34,88.34,88.31,88.17,88.14,88.1,88.12,88.08,88.06,88.08,88.0,88.07,88.11,88.14,88.16,88.05,88.08,88.06,88.03,88.05,87.93,87.94,87.89,87.89,87.92,87.79,87.835,87.856,87.81,87.75,87.84,87.89,87.83,87.971,87.97,88.05,88.04,88.04,88.02,88.02,88.02,88.091,88.085,88.19,88.16,88.28,88.255,88.225,88.15,88.234,88.12,88.08,88.06,88.04,88.03,88.093,88.02,88.03,88.01,88.0,87.96,87.89,87.85,87.86,87.945,87.97,88.03,88.055,88.06,87.96,87.95,87.92,87.93,87.965,87.94,87.93,87.98,87.922,87.98,87.915,87.9,87.913,87.92,87.93,87.91,87.96,87.99,87.99,88.07,88.159,88.18,88.18,88.16,88.16,88.18,88.17,88.073,88.12,88.055,88.06,88.09,88.15,88.18,88.125,88.15,88.13,88.08,88.1,88.08,88.03,87.9,87.93,87.95,87.96,87.94,87.865,87.803,87.89,87.92,87.96,88.0,88.06,88.03,88.006,88.04,88.07,88.06,88.11,88.08,87.99,87.95,87.9,87.97,87.95,87.95,87.94,87.92,87.951,87.94,87.93,87.958,87.97,87.95,88.14,88.25,88.32,88.265,88.3,88.41,88.53,88.495,88.45,88.47,88.53,88.565,88.6,88.61,88.63,88.7,88.84,88.915,88.88,89.0,89.01,88.96,88.9,88.87,88.73,88.76,88.6,88.64,88.72,88.79,88.64,88.61,88.75,88.65,88.71,88.63,88.69,88.87,88.8,88.77,88.72,88.69,88.71,88.82
2019-05-24,90.4,90.213,89.847,89.925,89.85,89.57,89.56,89.31,89.48,89.35,89.45,89.31,89.3,89.15,89.16,89.01,89.15,89.1,88.91,88.93,88.794,88.92,88.97,88.79,88.88,89.07,89.1,89.084,89.04,89.11,89.14,89.19,89.245,89.271,89.31,89.25,89.14,89.035,89.0,88.86,88.94,89.04,88.97,88.92,88.955,89.075,89.14,89.1,89.095,89.135,89.05,89.07,89.11,89.15,89.08,89.0,89.035,89.09,89.0,88.93,88.98,88.93,88.84,88.735,88.72,88.57,88.545,88.53,88.46,88.5,88.38,88.39,88.4,88.37,88.365,88.51,88.36,88.2,88.227,88.13,88.115,88.01,88.01,87.96,87.945,87.99,87.9,87.93,88.06,87.96,87.97,87.88,87.91,87.945,87.86,87.74,87.74,87.82,87.68,87.625,87.5,87.35,87.455,87.49,87.288,87.38,87.28,87.19,87.4,87.435,87.35,87.375,87.43,87.49,87.53,87.5,87.49,87.45,87.41,87.36,87.47,87.47,87.42,87.51,87.38,87.47,87.42,87.365,87.385,87.315,87.265,87.435,87.29,87.29,87.34,87.34,87.27,87.355,87.25,87.26,87.27,87.295,87.375,87.34,87.34,87.33,87.27,87.26,87.22,87.22,87.19,87.18,87.145,87.14,87.175,87.2,87.18,87.15,87.16,87.12,87.13,87.1,87.1,87.07,87.05,86.99,86.99,86.94,86.88,86.98,87.0,86.995,86.98,86.965,86.98,86.99,87.005,86.97,87.0,87.015,87.015,87.03,87.22,87.235,87.23,87.33,,87.37,87.384,87.36,87.31,87.21,87.25,87.215,87.25,87.255,87.21,87.23,87.285,87.2,87.18,87.169,87.21,87.204,87.23,87.17,87.16,87.16,87.17,87.27,87.27,87.295,87.27,87.27,87.23,87.21,87.15,87.15,87.17,87.174,87.205,87.13,87.16,87.15,87.14,87.195,87.083,87.12,87.21,87.15,87.1,87.1,87.08,87.1,87.1,87.065,87.105,87.07,87.09,86.99,87.08,87.05,87.04,87.07,87.01,86.95,86.97,87.01,87.08,87.01,86.99,87.0,87.0,86.98,87.0,87.0,86.98,87.0,86.94,87.005,87.005,87.015,87.005,86.99,86.985,86.9,86.9,86.9,86.93,87.005,87.0,86.96,86.99,87.005,86.98,86.965,86.955,86.94,86.95,86.98,86.93,86.87,86.815,86.8,86.79,86.805,86.71,86.753,86.78,86.74,86.75,86.72,86.75,86.72,86.755,86.922,86.97,86.96,86.935,86.89,86.88,86.85,86.88,86.894,86.8,86.74,86.75,86.77,86.74,86.73,86.74,86.75,86.75,86.75,86.75,86.75,86.92,86.93,86.88,86.87,86.88,86.905,86.86,86.91,86.86,86.9,86.85,86.9,86.9,86.93,86.92,86.9,86.95,86.91,86.94,86.87,86.86,86.83,86.875,86.9,86.9,87.0,86.98,87.015,87.05,87.09,87.1,87.07,86.99,86.97,86.94,86.99,86.94,86.89,86.885,86.9,86.86,86.85,86.87,86.98,86.945,86.99,86.95,86.93,86.955,86.885,86.945,86.9,86.9,86.9,86.965,86.995,87.02,87.06,87.09,87.11,87.11,87.235,87.315,87.23,87.225,87.24,87.135,87.17,87.26,87.21,87.16,87.219,87.18,87.15
2019-05-28,87.63,87.837,88.099,87.77,87.775,87.85,88.0,87.84,87.71,87.65,87.775,87.73,87.815,87.945,87.58,87.8,87.95,87.916,88.045,88.0,87.895,87.94,87.89,88.1,88.23,88.29,88.185,88.08,88.13,88.085,88.177,88.19,88.175,88.02,87.96,88.027,88.1,88.1,88.16,87.97,87.855,87.81,87.79,87.9,87.85,87.92,87.897,87.82,87.657,87.74,87.77,87.855,87.865,87.81,87.77,87.695,87.65,87.63,87.62,87.665,87.695,87.645,87.62,87.61,87.47,87.31,87.309,87.25,87.25,87.09,87.09,87.236,87.21,87.31,87.24,87.21,87.28,87.38,87.36,87.41,87.3,87.165,87.0,87.08,87.1,87.15,87.06,87.05,87.19,87.18,87.404,87.45,87.555,87.445,87.44,87.59,87.63,87.745,87.71,87.74,87.71,87.62,87.585,87.75,87.68,87.68,87.7,87.7,87.74,87.77,87.7,87.7,87.675,87.744,87.66,87.65,87.564,87.5,87.52,87.4,87.35,87.33,87.325,87.22,87.34,87.46,87.47,87.47,87.445,87.495,87.58,87.55,87.65,87.62,87.63,87.6,87.54,87.555,87.49,87.41,87.43,87.46,87.41,87.38,87.33,87.245,87.275,87.317,87.37,87.35,87.415,87.39,87.49,87.448,87.37,87.395,87.42,87.445,87.42,87.33,87.34,87.38,87.46,87.505,87.54,87.55,,87.532,87.65,87.6,87.62,87.65,87.6,87.59,87.57,87.67,87.65,87.67,87.63,87.6,87.65,87.61,87.485,87.43,87.5,87.51,87.47,87.49,87.46,87.438,87.41,87.37,87.43,87.41,87.35,87.34,87.38,87.38,87.44,87.35,87.36,87.39,87.44,87.38,87.33,87.35,87.35,87.353,87.33,87.28,87.35,87.4,87.49,87.52,87.46,87.47,87.58,87.575,87.56,87.51,87.5,87.59,87.6,87.6,87.585,87.59,87.6,87.67,87.59,87.55,87.595,87.58,87.58,87.57,87.585,87.53,87.59,87.54,87.615,87.56,87.57,87.59,87.57,87.605,87.66,87.65,87.77,87.73,87.71,87.67,87.77,87.79,87.71,87.7,87.7,87.68,87.67,87.63,87.68,87.729,87.75,87.72,87.68,87.669,87.62,87.68,87.58,87.565,87.69,87.635,87.57,87.545,87.545,87.49,87.46,87.48,87.46,87.48,87.46,87.44,87.44,87.41,87.35,87.31,87.405,87.38,87.43,87.48,87.51,87.49,87.47,87.485,87.45,87.44,87.42,87.43,87.44,87.48,87.451,87.39,87.35,87.43,87.42,87.39,87.355,87.25,87.27,87.26,87.27,87.216,87.12,87.09,87.05,87.065,87.09,87.13,87.15,87.205,87.22,87.249,87.29,87.355,87.378,87.34,87.386,87.395,87.45,87.445,87.445,87.48,87.44,87.39,87.37,87.385,87.385,87.47,87.606,87.53,87.5,87.45,87.45,87.41,87.381,87.4,87.5,87.51,87.58,87.53,87.54,87.5,87.47,87.51,87.44,87.51,87.48,87.49,87.55,87.46,87.45,87.4,87.33,87.26,87.315,87.3,87.31,87.29,87.265,87.3,87.31,87.295,87.285,87.36,87.335,87.31,87.235,87.26,87.28,87.27,87.325,87.295,87.33,87.3,87.24,87.25,87.31,87.3,87.25,87.24,87.255,87.12
2019-05-29,86.01,86.06,85.98,86.05,85.71,85.67,85.95,85.69,85.63,85.623,85.53,85.719,85.67,85.71,85.65,85.59,85.58,85.45,85.22,85.365,85.325,85.315,85.32,85.18,85.415,85.46,85.48,85.47,85.37,85.34,85.22,85.27,85.2,85.29,85.355,85.35,85.35,85.25,85.19,85.28,85.31,85.32,85.42,85.52,85.642,85.75,85.73,85.84,85.78,85.73,85.66,85.76,85.715,85.69,85.755,85.674,85.87,85.8,85.87,85.88,85.87,85.783,85.83,85.73,85.685,85.75,85.84,85.805,85.8,85.87,85.74,85.76,85.71,85.84,85.84,85.754,85.81,85.83,85.71,85.8,85.77,85.725,85.71,85.655,85.7,85.67,85.76,85.77,85.7,85.7,85.65,85.78,85.685,85.7,85.62,85.58,85.53,85.62,85.64,85.579,85.45,85.35,85.39,85.41,85.22,85.17,85.08,85.169,85.145,85.06,85.04,84.93,84.82,84.83,84.85,84.87,84.93,84.9,84.83,84.915,84.9,85.09,84.92,84.9,84.98,85.0,84.83,84.905,84.894,84.77,84.63,84.65,84.44,84.45,84.42,84.4,84.54,84.52,84.51,84.55,84.52,84.43,84.34,84.3,84.333,84.37,84.36,84.375,84.33,84.36,84.41,84.457,84.43,84.42,84.435,84.47,84.6,84.54,84.63,84.62,84.64,84.65,84.78,84.79,84.81,84.88,84.87,84.88,84.935,84.85,84.78,84.74,84.73,84.64,84.69,84.71,84.73,84.68,84.665,84.68,84.77,84.79,84.81,84.795,84.82,84.78,84.75,84.82,84.87,84.99,84.89,84.919,84.9,84.955,84.96,85.03,85.065,84.97,84.96,84.87,84.955,84.89,84.88,84.84,84.92,84.91,84.95,84.945,84.95,84.95,85.02,85.14,85.15,85.175,85.155,85.205,85.27,85.31,85.54,85.59,85.58,85.727,85.61,85.53,85.43,85.385,85.42,85.47,85.409,85.5,85.47,85.45,85.42,85.47,85.53,85.55,85.52,85.65,85.7,85.66,85.74,85.83,85.89,85.86,85.8,85.885,85.865,85.9,85.9,85.97,85.92,85.83,85.8,85.75,85.83,85.76,85.755,85.77,85.76,85.82,85.88,85.785,85.729,85.7,85.68,85.676,85.7,85.62,85.67,85.6,85.67,85.655,85.63,85.64,85.68,85.66,85.77,85.75,85.765,85.67,85.65,85.665,85.66,85.57,85.55,85.566,85.595,85.587,85.63,85.62,85.66,85.69,85.71,85.71,85.73,85.745,85.78,85.835,85.81,85.92,85.83,85.78,85.74,85.775,85.79,85.78,85.835,85.855,85.87,85.9,85.795,85.82,85.87,85.75,85.75,85.71,85.72,85.714,85.78,85.769,85.754,85.73,85.72,85.73,85.77,85.78,85.87,85.91,85.95,86.0,85.95,85.89,85.85,85.88,85.91,85.82,85.85,85.87,85.86,85.88,85.85,85.91,85.93,85.95,85.98,85.985,85.965,86.02,86.07,86.08,86.105,86.21,86.16,86.14,86.2,86.215,86.25,86.175,86.13,86.21,86.15,86.135,86.1,86.17,86.35,86.35,86.39,86.345,86.29,86.29,86.38,86.39,86.39,86.42,86.41,86.37,86.37,86.39,86.48,86.49,86.44,86.42,86.47,86.47,86.53,86.54,86.54,86.565,86.59,86.44
2019-05-30,86.26,86.26,86.425,86.31,85.95,85.99,86.07,85.92,85.665,85.73,85.87,85.92,85.95,85.94,85.96,86.0,86.005,86.03,85.915,86.01,85.885,85.91,86.015,85.95,85.945,86.04,86.18,86.08,85.988,85.95,85.75,85.92,85.905,85.87,85.86,85.67,85.61,85.64,85.62,85.65,85.65,85.74,85.763,85.635,85.72,85.723,85.61,85.59,85.395,85.37,85.397,85.37,85.385,85.38,85.315,85.405,85.32,85.36,85.354,85.305,85.34,85.2,85.215,85.24,85.15,85.03,85.01,85.09,85.081,85.04,84.98,84.915,84.92,84.95,85.06,85.03,84.97,85.02,84.91,84.88,84.83,84.81,84.8,84.825,84.84,85.06,85.18,85.26,85.375,85.2,84.858,84.4,84.29,84.29,84.58,84.44,84.33,84.255,84.369,84.46,84.39,84.54,84.648,84.71,84.71,84.57,84.61,84.4,84.43,84.27,84.26,84.16,83.97,83.97,83.86,83.9,83.98,83.94,83.88,83.82,84.005,84.0,83.985,84.01,84.13,84.19,84.24,84.355,84.31,84.325,84.34,84.29,84.31,84.26,84.245,84.16,84.21,84.17,84.11,84.01,83.99,83.87,83.836,83.86,83.88,83.955,84.01,83.982,84.03,84.115,84.14,84.07,84.04,84.04,84.05,84.04,84.145,84.115,84.01,84.02,83.98,84.06,84.05,84.0,84.17,84.1,84.22,84.31,84.33,84.35,84.31,84.28,84.31,84.3,84.268,84.22,84.215,84.25,84.19,84.19,84.18,84.12,84.13,84.13,84.235,84.26,84.25,84.34,84.36,84.3,84.38,84.28,84.28,84.31,84.37,84.35,84.39,84.45,84.445,84.435,84.47,84.485,84.471,84.45,84.46,84.47,84.45,84.43,84.44,84.424,84.4,84.422,84.42,84.43,84.415,84.38,84.34,84.29,84.245,84.21,84.245,84.23,84.2,84.2,84.24,84.21,84.26,84.27,84.21,84.23,84.365,84.38,84.34,84.36,84.365,84.37,84.39,84.395,84.345,84.43,84.33,84.27,84.24,84.21,84.19,84.15,84.133,84.125,84.12,84.091,84.11,84.075,84.2,84.19,84.16,84.14,84.16,84.111,84.14,84.14,84.195,84.23,84.32,84.345,84.385,84.405,84.33,84.38,84.353,84.345,84.33,84.435,84.43,84.435,84.43,84.42,84.36,84.3,84.28,84.27,84.27,84.295,84.255,84.25,84.19,84.115,84.09,84.13,84.11,84.155,84.195,84.11,84.11,84.1,84.1,84.007,84.07,84.08,84.125,84.07,84.03,84.06,84.03,84.04,84.06,84.05,84.015,83.953,83.95,83.95,84.06,84.02,83.96,83.94,83.96,83.94,84.015,84.015,83.98,84.03,84.063,84.075,84.06,84.05,84.11,84.185,84.21,84.17,84.16,84.17,84.15,84.15,84.12,84.15,84.16,84.15,84.01,83.92,83.97,84.03,84.035,84.08,84.12,84.09,84.12,84.07,84.02,84.04,84.07,84.05,84.02,84.01,83.99,84.02,83.99,83.92,83.94,83.98,84.025,83.96,83.92,83.96,84.009,83.97,83.99,84.085,84.1,84.14,84.08,84.07,84.06,84.04,84.045,84.025,84.05,84.01,84.06,84.05,84.015,84.0,84.01,84.01,84.025,84.01,83.95,83.91,83.92,83.87,83.865,83.95
2019-05-31,82.22,82.31,82.695,82.835,82.81,82.8,82.83,82.77,82.78,82.89,82.88,83.01,83.04,83.025,83.06,83.34,83.32,83.31,83.35,83.255,83.07,83.02,83.05,83.12,82.99,83.07,83.01,82.9,83.055,83.195,83.24,83.12,83.165,83.12,83.105,83.03,83.01,83.07,83.03,83.01,82.98,83.02,82.913,82.895,82.841,83.01,82.99,83.17,83.21,83.22,83.25,83.4,83.405,83.605,83.58,83.51,83.47,83.52,83.49,83.52,83.59,83.57,83.53,83.61,83.535,83.615,83.71,83.755,83.71,83.75,83.64,83.59,83.56,83.41,83.335,83.53,83.44,83.37,83.36,83.39,83.56,83.54,83.6,83.61,83.575,83.49,83.45,83.44,83.43,83.38,83.36,83.39,83.42,83.24,83.13,83.065,83.09,83.11,83.215,83.2,83.2,83.19,83.192,83.18,83.075,83.17,83.09,83.14,83.1,83.1,83.1,83.22,83.29,83.38,83.43,83.43,83.32,83.32,83.415,83.43,83.32,83.44,83.28,83.33,83.35,83.37,83.435,83.32,83.34,83.335,83.3,83.32,83.34,83.28,83.241,83.14,83.15,83.13,83.11,83.17,83.175,83.18,83.16,83.08,83.07,83.144,83.236,83.245,83.26,83.295,83.29,83.247,83.215,83.13,83.08,83.08,83.12,83.075,83.11,83.09,83.09,83.1,83.07,83.07,83.095,83.13,83.15,83.13,83.21,83.225,83.2,83.22,83.09,83.12,83.09,83.08,83.02,83.075,83.1,83.12,83.06,83.07,83.055,83.11,83.09,83.07,83.07,83.0,82.94,82.94,82.89,82.94,82.92,82.98,82.91,82.9,82.94,82.93,82.91,82.97,83.0,82.95,82.93,82.9,82.96,82.92,82.835,82.905,82.89,82.855,82.87,82.92,82.94,82.91,82.9,82.91,82.85,82.815,82.82,82.86,82.93,82.89,82.87,82.84,82.82,82.86,82.81,82.84,82.83,82.79,82.77,82.7,82.65,82.65,82.73,82.725,82.69,82.635,82.72,82.695,82.68,82.72,82.72,82.688,82.68,82.71,82.66,82.68,82.617,82.63,82.6,82.58,82.572,82.535,82.52,82.55,82.54,82.56,82.625,82.602,82.55,82.49,82.5,82.5,82.51,82.62,82.61,82.57,82.555,82.54,82.47,82.39,82.42,82.36,82.37,82.36,82.374,82.34,82.37,82.38,82.345,82.265,82.26,82.24,82.23,82.195,82.25,82.23,82.24,82.23,82.23,82.205,82.24,82.23,82.215,82.12,82.11,82.13,82.13,82.13,82.09,82.07,82.065,82.06,82.09,82.12,82.12,82.122,82.12,82.1,82.11,82.25,82.265,82.31,82.268,82.358,82.32,82.35,82.29,82.33,82.37,82.42,82.441,82.45,82.42,82.43,82.5,82.42,82.47,82.41,82.37,82.31,82.31,82.29,82.21,82.14,82.105,82.08,82.03,82.05,81.99,82.0,82.01,82.03,82.01,82.01,82.0,81.97,81.99,81.98,82.06,82.06,81.985,81.98,81.99,81.96,81.95,81.86,81.86,81.96,81.94,81.97,81.97,81.95,81.97,81.95,81.91,81.91,81.89,81.9,81.93,81.89,81.915,81.95,81.943,81.93,81.96,82.02,82.075,82.03,81.995,81.91,81.94,81.93,81.915,81.92,81.93,81.967,81.935,81.87
