,09:30,09:31,09:32,09:33,09:34,09:35,09:36,09:37,09:38,09:39,09:40,09:41,09:42,09:43,09:44,09:45,09:46,09:47,09:48,09:49,09:50,09:51,09:52,09:53,09:54,09:55,09:56,09:57,09:58,09:59,10:00,10:01,10:02,10:03,10:04,10:05,10:06,10:07,10:08,10:09,10:10,10:11,10:12,10:13,10:14,10:15,10:16,10:17,10:18,10:19,10:20,10:21,10:22,10:23,10:24,10:25,10:26,10:27,10:28,10:29,10:30,10:31,10:32,10:33,10:34,10:35,10:36,10:37,10:38,10:39,10:40,10:41,10:42,10:43,10:44,10:45,10:46,10:47,10:48,10:49,10:50,10:51,10:52,10:53,10:54,10:55,10:56,10:57,10:58,10:59,11:00,11:01,11:02,11:03,11:04,11:05,11:06,11:07,11:08,11:09,11:10,11:11,11:12,11:13,11:14,11:15,11:16,11:17,11:18,11:19,11:20,11:21,11:22,11:23,11:24,11:25,11:26,11:27,11:28,11:29,11:30,11:31,11:32,11:33,11:34,11:35,11:36,11:37,11:38,11:39,11:40,11:41,11:42,11:43,11:44,11:45,11:46,11:47,11:48,11:49,11:50,11:51,11:52,11:53,11:54,11:55,11:56,11:57,11:58,11:59,12:00,12:01,12:02,12:03,12:04,12:05,12:06,12:07,12:08,12:09,12:10,12:11,12:12,12:13,12:14,12:15,12:16,12:17,12:18,12:19,12:20,12:21,12:22,12:23,12:24,12:25,12:26,12:27,12:28,12:29,12:30,12:31,12:32,12:33,12:34,12:35,12:36,12:37,12:38,12:39,12:40,12:41,12:42,12:43,12:44,12:45,12:46,12:47,12:48,12:49,12:50,12:51,12:52,12:53,12:54,12:55,12:56,12:57,12:58,12:59,13:00,13:01,13:02,13:03,13:04,13:05,13:06,13:07,13:08,13:09,13:10,13:11,13:12,13:13,13:14,13:15,13:16,13:17,13:18,13:19,13:20,13:21,13:22,13:23,13:24,13:25,13:26,13:27,13:28,13:29,13:30,13:31,13:32,13:33,13:34,13:35,13:36,13:37,13:38,13:39,13:40,13:41,13:42,13:43,13:44,13:45,13:46,13:47,13:48,13:49,13:50,13:51,13:52,13:53,13:54,13:55,13:56,13:57,13:58,13:59,14:00,14:01,14:02,14:03,14:04,14:05,14:06,14:07,14:08,14:09,14:10,14:11,14:12,14:13,14:14,14:15,14:16,14:17,14:18,14:19,14:20,14:21,14:22,14:23,14:24,14:25,14:26,14:27,14:28,14:29,14:30,14:31,14:32,14:33,14:34,14:35,14:36,14:37,14:38,14:39,14:40,14:41,14:42,14:43,14:44,14:45,14:46,14:47,14:48,14:49,14:50,14:51,14:52,14:53,14:54,14:55,14:56,14:57,14:58,14:59,15:00,15:01,15:02,15:03,15:04,15:05,15:06,15:07,15:08,15:09,15:10,15:11,15:12,15:13,15:14,15:15,15:16,15:17,15:18,15:19,15:20,15:21,15:22,15:23,15:24,15:25,15:26,15:27,15:28,15:29,15:30,15:31,15:32,15:33,15:34,15:35,15:36,15:37,15:38,15:39,15:40,15:41,15:42,15:43,15:44,15:45,15:46,15:47,15:48,15:49,15:50,15:51,15:52,15:53,15:54,15:55,15:56,15:57,15:58,15:59
2019-04-01,2740794.0,415255.1,920603.2,508788.33,316401.5,486950.9225,1236996.67,358532.46,165783.78,442801.5,246757.55,558817.68,233617.38,216499.54,353413.0425,383984.78,710891.079,570356.28,343839.57,327805.64,412042.0,409531.9,324649.49,914203.23,1431811.51,576423.0,910348.85,892743.78,806638.11,412164.0,573886.81,288607.62,435201.505,1896187.68,1020944.6381,230517.9,317807.925,199166.74,282943.55,297697.8,488551.155,485387.7424,346146.6985,193670.12,451996.2,540614.0,192262.5,362575.47,677221.42,357119.36,355909.39,316055.56,204716.93,251765.07,395911.44,606124.7,263487.5198,233202.3,252436.714,434563.51,162389.4162,387109.94,90823.375,528253.85,136651.68,700627.51,380824.22,594691.23,383007.6524,555803.295,310168.5,381974.41,240594.0,197094.52,129737.8629,288728.5,331300.1,312978.2106,157974.78,2757310.3008,252574.1,340680.24,381326.715,280303.4509,840547.975,783184.2,444993.06,255322.0312,347333.2,337900.0627,187527.06,183476.5,345367.92,783809.31,190117.43,269732.24,223539.5922,347405.2624,636288.97,871568.84,177948.82,1033109.5,349803.0649,96565.0,206143.95,284844.7,318695.0,106015.6,443558.39,676911.56,1329638.6,202516.0,461205.5,125208.7,891037.3356,973336.465,386086.66,398972.92,231499.4,613756.35,287312.06,93953.2375,222409.33,489182.87,279239.0,324538.677,512722.33,115389.0,424594.0108,96098.0,141295.7748,200524.812,295022.54,174759.52,181233.89,226610.55,201573.0,208844.725,121316.95,134989.141,211644.24,76857.0,223128.21,167678.003,248052.7433,186549.7,166713.29,125146.0,48176.0,131583.5822,125216.0,134725.0,299279.558,48137.0,131374.2,146831.2375,91168.803,158498.9208,48587.2025,182718.5,326490.86,282020.96,337693.957,115498.0,111037.89,128420.84,105894.72,221897.78,154026.0,67373.0,125149.12,67431.0,182083.49,330309.7,299088.14,86694.56,146097.6,115672.0,86771.0,106087.0,48227.0,128318.431,76414.16,125782.6792,223420.52,177368.075,245806.2797,86911.46,149494.5,91696.5,183385.0,573144.0376,334643.22,67542.0,86864.0,164183.0,251074.8,318775.5,109011.3732,333478.2405,183448.9,202757.32,274875.35,154645.0,223885.24,67597.0,9653.0,241990.7,155656.55,296125.19,232132.65,238364.19,164459.39,67685.07,193507.48,87042.0,160877.6564,19337.0,468360.3258,243803.285,203955.2195,106448.0,435593.1,147059.18,183877.0,149423.46,348305.5,435201.0,188573.275,164395.0,487676.6,262340.59,106324.0,425541.44,137812.75,212705.6,127552.7294,116087.0,205376.1518,237619.52,268610.2125,214096.7465,172760.49,724140.98,145320.0,145347.0,106544.0,641516.64,145120.0,124463.3,135525.0,19369.0,125865.0,472147.28,48395.0,125853.0,251763.0,304284.3627,65073.76,232483.0,242513.64,435453.5045,1324066.882,929124.94,485190.3,771712.78,570034.25,164740.0,146261.87,252317.76,829813.0298,512921.81,290691.0,405837.8358,271189.0,203442.5,445869.7006,339157.0,251983.5,1738963.0044,542716.3,1106769.05,566589.9367,553884.29,417355.01,940834.83,231296.78,174766.0,252494.5,174818.5,309747.8,116414.0,302197.57,155176.0,311820.7978,164779.0,360835.12,128546.22,234008.6,100992.5257,249189.01,95884.7496,269843.3245,145200.5584,889233.89,846670.091,157765.92,557770.5,447354.0,242538.5,155201.5,379561.887,266463.85,735030.77,619985.5,458674.35,630384.074,461848.35,381800.0465,523100.0,1060585.4888,455431.97,396967.0,256056.55,157413.9434,271143.0,208279.0,261744.0,193809.0,251938.5,1041188.69,645684.048,251622.82,324620.5,668324.16,517755.08,513735.65,392896.38,391513.91,265233.4939,2203301.18,328390.8,636561.13,502192.6,458287.1792,353837.848,368543.38,626528.3219,604583.15,252959.46,634417.39,476581.06,708964.06,447759.83,3448828.9,2216514.5,519443.2558,501826.03,372938.426,375306.83,545944.25,437235.3,1415523.38,735050.81,812088.52,2092403.825,1602123.69,1027408.29,394249.4,626126.4,734767.88,881878.6,912831.98,906395.06,1311041.1902,1105914.9,950708.95,1419702.4,1046593.095,1302085.74,1331175.29,1172343.66,1993978.7568,1128029.65,2599191.31,2237794.515,1895721.35,3074704.995,2258406.01,4262759.3344
2019-04-02,2528484.14,201939.02,414563.28,252152.49,362108.409,706342.97,328736.29,189730.53,39635.8,234671.55,204463.8,370206.94,1007399.51,108271.083,194322.5,184407.9858,1188416.535,87310.0,750784.53,361343.63,290753.8,287450.05,420599.98,362282.3,406965.81,499249.225,1729871.54,820055.97,843894.4,745257.45,1602993.15,214597.8,860578.67,198139.42,394989.545,78118.0,245653.04,77999.5,117993.36,179304.94,153004.88,730622.0,261127.43,98872.24,799026.5,243689.94,332161.44,107253.0,124845.8259,78051.0,127711.8,1347402.55,48844.5,202872.63,265824.25,282786.0,117232.455,174044.3,340996.0,355492.6,422357.655,418543.33,329420.9925,191586.0,233961.0,319683.7,9744.0,422872.6,291889.01,165163.54,380207.39,272158.12,97140.0,108821.6,245466.79,272365.15,2001198.8385,439410.54,590297.93,189739.592,271442.88,85006.5602,699374.125,249105.8894,240010.14,293098.7533,145111.0,1638365.17,241719.5,847657.435,272010.94,544255.3295,238329.284,708597.0004,241165.53,389603.91,352451.57,221999.0,290067.65,318526.0,270308.53,265623.84,3314210.39,525109.7,423656.24,1306979.67,320911.4619,138172.32,302800.23,382809.68,320378.07,228240.22,351109.0,619151.4,1102275.25,609094.76,96656.5,135257.0,183572.53,135298.0,195210.2781,299692.49,222171.0,892081.74,425575.0,174112.0,196606.16,184752.365,202612.5,212381.7,109874.76,215509.29,107779.2,145058.0,96707.5,194856.6185,67662.5,239594.26,299571.88,193798.54,154701.0,228185.52,367668.08,142735.96,173702.8,170933.1506,439744.815,162834.9872,154975.0,174353.5,276212.73,526353.39,213117.0,162875.24,174679.6701,232500.0,516036.25,310456.64,155253.82,243088.69,538482.6038,232393.0,126829.9,222608.5,119554.3323,135388.5,454227.0,206159.615,155541.03,328567.5,299667.15,551778.97,270840.78,135359.5,215052.4125,59045.04,144923.5,431084.445,221007.749,96378.9503,284433.406,77162.0,195371.625,125364.0,135013.32,57892.0,209715.525,106182.5,135128.4,181558.896,164095.05,125510.0,111426.66,212403.66,96566.0,97474.488,266127.4023,125339.0,168056.16,57839.64,135015.5,125326.5,134962.01,77151.0,183698.6,231657.0,241425.98,128413.18,155759.467,106168.0,106220.48,46787.375,1105494.93,38578.0,173568.0,264904.53,135027.5,74211.9872,145911.85,87015.96,38653.0,203090.68,57960.0,67611.0,193275.5,125554.0,98026.93,212394.0,48274.05,167408.885,115932.0,96606.0,57976.5,540395.28,131322.01,86900.0,57922.0,290313.23,87428.06,144733.7,91845.505,187140.708,88715.8,67489.0,144649.0,96489.5,28959.0,106187.0,154454.3,308837.5,19299.0,160648.8775,106127.4,249020.05,137658.42,252488.6,107080.91,192631.8,115539.0,163642.0,464991.1862,452822.15,682068.572,135700.245,230901.1697,371929.6636,128899.9922,212759.0919,214060.42,146523.8055,151193.8796,226358.14,202656.3066,186344.11,116733.189,933399.485,173312.4,212310.5,86819.25,214823.41,270415.76,250807.52,135085.5,125353.5,164498.2645,144543.0,199157.455,57808.0,231219.0,258304.6218,105903.5,317643.5,251612.325,182726.0,249291.4394,221925.7,80169.9682,86598.5,347830.4434,259468.231,79144.94,48137.0,177911.51,163714.0,72398.04,162942.52,62594.925,178916.29,1432711.455,100620.2,129249.52,97785.45,490321.45,163768.0,566136.661,230232.6,107526.94,2502535.93,678645.145,524277.715,264607.7,302991.78,188070.15,279370.66,187729.6,423929.99,231428.54,324883.42,309233.7272,395841.05,819591.6,840731.16,204081.6622,408271.96,471312.15,574377.17,303530.3475,38514.5,323295.71,446559.01,173187.0,222813.6,462178.16,288797.5,346735.0,110449.395,125119.09,288783.28,879114.1939,261145.2,222525.24,346291.0,135012.93,497097.785,250444.99,423813.3,373654.232,638168.87,1704127.86,167389.06,237154.52,375196.5,221881.32,408251.44,471685.75,544755.1205,452652.81,269656.5,172289.8,597537.84,255871.65,772068.52,423748.44,696985.568,476493.5,931666.0607,1764611.96,615048.455,1147152.16,505468.24,948241.5714,1239027.52,1948995.6601,564038.695,1469249.3652,2055630.7622,2119024.4809,1566676.415,3790945.315,10642678.8915
2019-04-03,1543269.15,789606.58,451257.79,233743.8495,427558.82,403603.74,320199.24,105988.77,115568.0,339325.69,481171.25,633651.0,557111.48,441762.92,57762.5799,279676.06,444234.3818,1456211.0924,1214918.013,874592.5,615531.5,437384.0,335818.4,337383.58,153535.66,464431.74,253928.14,318016.3944,182120.51,604714.4,680687.4026,411354.67,343169.84,767473.5,358884.15,180170.02,143141.39,152773.0,97049.8296,77972.25,204182.95,287967.9,76781.35,86246.0,210773.5,106520.63,192519.7,225887.155,317219.78,115276.75,615599.8,268988.49,453651.5,468299.58,281721.07,1140624.6,288439.5,592798.99,67096.0,28751.5,1188013.52,593785.617,133741.0,509401.56,116741.7,170351.89,276802.6516,269303.18,962845.86,732574.45,2074331.91,231224.46,86384.0,76772.0,105494.82,334565.32,230348.75,326428.85,376597.6,268638.16,516345.034,401491.075,257464.07,674604.266,1676553.14,404299.66,514387.6502,336293.68,173294.905,413008.5,310768.6919,646667.477,249899.75,384892.74,272389.1,96282.25,420457.01,96081.0,340917.1792,144056.25,432063.47,288995.662,193677.35,435668.24,126767.2217,347496.5,248714.75,220038.5,372936.98,223414.68,300161.746,255527.06,267679.674,363256.39,167110.455,321272.9545,669922.8245,447949.0,316907.03,502147.58,372141.19,164167.599,252842.43,28629.25,381963.4,238525.75,384114.813,559016.6602,322577.61,257258.1117,301228.3,200062.0,172631.81,289773.549,106305.89,151006.84,521914.6,429773.11,352216.91,123758.0,277180.13,247834.0,219320.91,145067.0122,1011903.563,314827.5,307592.61,307301.6,203691.6168,648341.37,438850.5,817149.28,1184455.4,545231.35,276868.0,674872.23,990462.73,255686.5,509403.0,872370.42,367292.6698,1221209.4386,876894.357,240571.57,239635.895,143069.0,258803.6,133655.5,296743.8,95445.0,467529.5,298525.2,266134.6185,934816.79,840030.78,896645.58,1920587.1892,1878054.09,1343025.135,505564.58,564642.56,1056509.89,1378974.99,514986.37,482699.125,304549.36,180505.0054,324174.7348,301470.7387,314215.86,404744.43,371140.64,211226.592,565755.25,1884127.78,600137.7,170773.5,151874.0,275204.64,178910.82,180189.0,598758.89,411213.48,314273.52,336863.07,191741.3095,158078.71,240664.5,161036.0,246220.68,149498.9,369196.447,236802.2,57803.7,217924.5,104188.5,146852.185,268911.8,231417.7375,217920.0,75830.0,182550.2544,170450.7,132492.8,170318.5,254651.54,76704.49,661421.94,162319.52,312726.67,338817.9,3058500.11,237339.15,236519.02,189690.119,233078.4,121779.7898,254314.52,151335.35,160750.1,274208.58,94515.5,233357.8484,175097.1434,122935.0,264647.5,85058.5,2046200.94,264646.0,393090.85,213644.04,217474.48,454391.2368,139547.65,306704.96,113250.5,248339.88,377342.84,309328.08,394916.5255,478010.713,169707.51,364151.42,238442.21,150786.5,275777.37,103599.0,800819.83,824468.4629,132324.36,312172.9034,2232351.64,780430.5838,594720.3667,399192.03,302712.6814,178570.0,248249.25,424072.45,386771.78,93469.24,103860.34,197135.02,51601.0,161438.01,197052.0,374220.8439,321852.72,84439.5,93804.0,275049.9068,236895.47,284923.87,1682778.4401,329000.25,225448.378,137509.98,674962.456,400237.0,386305.7,202983.41,468331.02,165065.74,411177.43,334973.39,496220.42,398691.8836,197949.0,311776.46,320478.0,431831.26,646147.58,365761.4536,491278.96,310712.0,442264.95,273160.0,387491.27,292016.5,513342.9247,576198.79,412501.05,269489.79,357984.86,1304993.24,378567.82,326892.35,386860.5,321681.5,370272.0204,260163.7,359873.94,225889.5,486254.04,341129.2568,449456.415,459411.9275,293089.81,405509.5,282773.0,265914.44,670635.94,376555.8,631547.1,456722.06,802002.5,542194.945,799838.27,918715.305,697691.29,277206.16,3291494.23,734548.98,993103.2704,701437.38,367439.7,266633.05,275639.99,474803.3686,424980.18,836295.36,571898.89,1295326.97,609153.43,950642.29,747398.04,614592.74,762076.9683,423396.9,457583.12,798725.645,547284.82,482299.085,852367.014,924977.5,1057938.57,1094631.03,649909.0195,782781.81,831809.44,867968.81,905972.61,2388246.66,2594385.285,3312127.1,3705732.27,2691359.015,4881552.8975,5454937.235,9634806.02
2019-04-04,2443623.17,602325.7,1125855.76,1196524.9,433034.8,682814.04,363056.975,67727.02,681132.0276,946906.49,263193.797,1044119.959,753649.0,220462.0678,282320.5,192733.9,753252.6452,112539.0,841364.1928,340668.21,656157.09,384656.3,402034.8283,287955.4,326999.118,159482.0,669195.75,543105.05,304417.0,681251.7166,561635.72,368654.82,355689.63,234063.01,194194.0045,243215.5,594052.505,233910.15,517282.5,211837.28,465585.046,334613.04,495591.05,696937.565,1053409.91,501196.475,263886.0312,325583.45,540686.624,149638.0,215133.5,486429.08,1105200.88,880294.27,434438.83,486383.03,550464.675,171124.018,69937.56,2529372.58,195892.0,111955.72,420625.3,377608.96,55917.0,167654.5,195637.3,182150.56,223089.3765,223243.32,186005.0,154889.02,78539.4,241815.0,111740.5,149166.5,605029.108,119120.7957,186537.74,112525.7296,37320.5,74629.0,186509.5,240821.3,158411.0,640101.51,654455.67,493516.19,228083.0,333849.02,251233.0,176734.0,5623631.5,698213.0,1369434.25,1080804.5,1260357.3435,914482.12,540891.2295,1972282.2,1183862.84,712068.9,436262.14,478054.73,158776.5,177376.5,298511.0,174420.62,186429.5,328754.98,300163.5,158113.0,187912.9,93345.7252,213811.625,359704.52,293889.5,283030.24,354815.5,1023585.04,242653.0,216555.91,154452.9957,1147490.5,1421119.67,803115.42,232357.215,3245943.47,280863.5,1622188.8401,431351.64,74876.0,734451.177,144153.74,408759.18,184769.64,365580.0,592286.046,549191.06,2605277.11,1088823.2,290420.29,721062.6,1581603.89,1096821.76,358423.62,1405334.2,319605.16,679679.16,1120276.23,761568.38,997611.25,674779.0,545865.0,256971.32,607082.81,472829.36,846419.6,14343395.5,365377.57,196525.5,459970.35,196411.5,102842.5,284038.84,264323.06,177243.5,188886.24,167796.76,233275.94,214736.98,97312.1077,319821.3,224684.21,149751.111,149645.5,186935.0,177669.5,177612.46,159030.5,313225.925,695204.62,121772.98,496470.02,89331.64,224478.0,177529.79,46751.0,388347.38,168246.0,168813.26,84104.5,255069.47,245329.0592,261221.214,72025.953,112284.49,113688.4,113612.1285,332168.63,395716.3,121698.0,299628.1,1186151.01,140485.0,535593.2095,219692.792,224822.5,147595.9,278108.198,169123.5156,56345.7,280612.5,102828.0,169909.29,149542.5,160345.85,102655.393,91356.8167,86765.0,121018.65,56087.0,56296.916,84161.0,130838.02,102812.5,379799.191,186968.5,590183.9,262070.0,907656.05,1068645.15,145166.1028,196511.0,246199.076,149653.0,84186.0,16824452.1472,1509678.555,1237149.51,382119.31,1788143.44,212437.7388,259013.2932,222334.75,102995.0,252998.5,438030.14,149862.91,243850.92,290285.4,145496.22,224685.5,252597.0,131962.6,168683.24,131066.0,552553.0,449074.0,271125.0,289883.8,355641.5,16116176.1,290427.0,468734.94,1274438.865,734003.925,1008420.82,2377850.85,946541.0849,825933.32,608448.03,541279.32,261077.48,405157.96,3287565.93,1111715.75,1830102.62,614531.82,2223163.72,1334348.1376,2160263.1286,1994360.735,959967.027,628027.93,724405.39,595001.02,1043620.92,430357.21,481000.77,508520.583,234143.0,794193.888,199273.59,16076370.33,459268.1825,601899.76,205874.0,411247.57,196292.5,262153.4885,188708.05,247868.8,315097.588,504575.8155,199586.84,382844.77,178035.49,215725.94,280026.03,224801.6,149819.0,346308.0,365394.68,427887.58,196334.5,234351.939,196741.4,274322.0,169330.94,167967.0,307881.5,149323.0,185873.45,321291.742,278743.545,264855.47,504390.93,309214.9,305169.58,214896.0,305483.98,289460.14,310368.53,4885720.0712,890502.1538,431891.67,772652.8159,1864713.365,299633.42,349659.6,329282.02,357668.86,243088.0,535409.05,304869.7715,197696.29,369792.1852,473927.64,439349.0176,270488.22,384661.15,393437.73,289688.0,312743.0489,456608.38,205605.0,381718.77,566311.0694,692343.08,796225.99,635632.5784,205534.0,712993.94,271130.0,844444.9099,352216.23,560927.28,436393.965,516539.69,476985.0,1001310.365,15366169.8925,577909.8198,1086211.9,1145311.631,1069593.59,10009989.37,986576.31,5822898.83,861098.5,720940.58,1479591.9778,1160139.185,8180219.74,2267839.01,1224233.07,2863249.12,3254128.385,8168604.4626
2019-04-05,2347240.08,263060.8,421984.17,829688.695,456311.3475,475449.14,121169.9,832847.32,535403.58,423367.2907,241371.75,788243.42,200437.7741,217571.118,66270.0,3106807.33,1757536.28,618192.46,2009317.0,295450.5,1060326.96,410957.785,705562.05,1325827.335,876302.304,361722.66,463880.6824,600574.5,237488.7,397257.756,462447.4,373345.165,933916.02,775219.12,857670.82,1550120.492,1374572.92,1004799.3775,3423496.98,560325.54,668642.34,2477203.215,448035.075,499037.2556,212311.425,478102.74,330171.72,220380.55,511957.1,882660.3292,487699.8285,234330.895,386942.4,154545.5,560827.9875,577176.905,347515.05,939014.472,216350.74,441664.29,347940.475,440240.36,897834.49,592606.72,804441.9112,733721.82,444424.0,614835.475,515400.16,125620.49,427643.61,215604.019,473544.5,231857.5,299530.335,332367.79,204224.645,367286.88,695894.3152,146346.035,611690.815,533427.32,876668.42,232950.5,294235.255,573410.01,1448311.75,1137948.62,2051836.66,790905.055,445580.047,365590.89,458570.59,355917.245,152822.68,290745.5,351637.873,168695.967,360801.7,318732.65,292867.725,514947.66,743027.4656,1366654.265,689963.125,623086.2523,693889.97,415404.4725,347260.01,538807.9497,1844234.8306,489686.665,383345.275,309169.697,1304366.8802,934393.349,578803.2079,621543.22,1077210.26,989490.978,517654.75,1498254.0,770564.785,907305.845,2317236.3711,1321041.36,654042.67,1392078.63,1068721.93,1310845.67,686269.565,799701.07,517397.36,348545.14,879969.62,192144.08,237861.55,173478.768,318492.2,77683.0,284016.82,199325.202,453342.72,490442.215,317170.3735,287971.1,178160.24,223396.9,171485.995,333204.99,212890.3,574089.4869,214789.37,388202.96,223310.5,232986.0,184406.0,118513.01,155372.64,49044.075,38854.72,68009.52,116693.655,235456.695,208561.035,353235.14,155731.64,58602.805,392202.0942,174946.0,684508.51,481179.72,914417.2292,221012.44,279173.4767,298240.685,147141.25,236539.92,205017.4096,188719.02,124587.89,108632.025,182941.34,303443.18,178905.41,127967.17,195517.655,106997.0,662076.03,244404.56,606227.527,340126.1,331709.62,233328.5,186689.3508,478470.05,918201.9738,355208.52,239659.415,381568.165,266540.09,253552.0,261885.475,312070.43,1299743.005,196625.48,447863.98,378919.285,378459.67,401220.02,814690.735,1010551.16,538785.95,700877.1,853023.425,819480.645,826873.75,629655.69,1064230.6676,638003.03,723244.175,931461.16,817297.85,2517413.1041,937229.942,1784890.028,1110265.155,736651.0415,792432.4,332976.34,757161.3504,310066.1392,392869.93,283736.8788,339062.5,696390.57,254253.49,1215995.48,841973.31,472146.89,716850.944,1202686.0655,498276.5478,211420.4644,227567.46,235505.1,216062.78,315213.5289,937450.73,255678.5,379380.55,433579.737,529806.06,657399.91,589274.68,475839.43,322993.96,324942.01,337370.9858,314449.07,275023.5,273100.6,692820.69,861663.83,617217.98,255414.33,406351.1974,733592.9616,397106.79,650497.8,431184.6,371487.064,258315.25,823664.32,403160.874,734807.5,622307.42,2628970.34,538284.13,140021.4,140198.8296,1433605.5461,1072240.9,212579.7239,305466.6,521122.775,635478.375,424474.71,491845.1,382648.73,533025.2144,608568.758,196067.1,177456.5,276867.0548,378542.2267,360693.72,397879.9577,472784.845,193345.95,495688.73,478604.215,439280.24,662015.79,803030.442,450250.1134,394175.023,441648.25,274656.059,530900.0,705517.91,287051.59,770139.035,196112.06,157972.62,212513.48,558510.9367,275146.285,167466.52,599664.56,255486.36,519626.43,129140.15,581568.08,363177.41,337767.63,981572.46,1220861.72,1097560.357,1012922.26,634241.555,997848.92,357096.63,337059.82,2510904.21,1013898.85,563862.5188,764646.545,241177.89,829748.02,464692.045,1034511.53,588749.1819,436112.155,248500.18,751602.48,331449.16,822388.79,167546.93,425123.7725,327376.195,697127.02,500027.105,310579.64,391986.905,813163.565,601847.205,665582.12,401502.025,665934.075,827242.625,898392.715,1255469.51,790167.92,910514.805,813715.99,1034053.415,684810.7499,1210199.5448,2457365.6198,1098643.46,1147849.675,673841.1558,1222612.6349,1057343.0898,2671212.2147,1438072.19,1022425.6346,1448373.395,1576041.6525,2054073.96,1933137.681,2009142.145,2130381.5,2307599.3125,4883049.34,4455362.3198,5203036.6495,7375475.8447,14793580.7527
2019-04-08,3468111.02,1034338.7287,1192874.5984,1439149.3423,2102259.8425,925141.2403,1043599.804,1168790.6,886462.22,2457742.55,1327616.41,1107916.87,1877176.96,1595051.48,974066.01,2340887.0235,1520764.125,1247936.955,2769245.965,1996820.905,2570016.54,2538220.94,5491947.6015,3458234.6,3108320.5211,1549916.4315,2897377.36,2306992.4904,1817394.66,1260998.505,965339.045,2308275.08,1038481.57,2058663.25,872905.8,2456039.4,1035531.5165,1473680.745,390022.5,2062770.86,854797.185,502650.54,1287273.845,1713809.0975,239382.0096,935452.605,694660.33,1720365.63,1784289.708,613448.66,1142616.721,1711422.82,526892.5,271032.96,281914.49,612466.96,406970.4975,892674.625,860594.5,1049177.1,827396.21,736512.5745,2212013.99,909051.0848,1702150.35,794227.19,618965.58,586960.608,670735.14,1681103.72,1897424.0135,806815.06,572328.51,470316.4,622782.72,980358.03,867980.64,611197.42,540778.53,463835.3171,1001710.67,1952745.63,893581.012,883759.199,602864.45,982038.06,667878.42,782745.325,1083309.52,772100.18,225451.01,923409.556,2142203.14,656864.55,1630602.995,1743774.38,1653472.231,2158755.2369,190004.56,2692730.73,10608195.265,410350.98,3672977.74,1651800.4,1690915.54,645931.4,428390.68,691016.93,427071.72,500178.1,323917.4407,280001.26,935365.05,463556.84,411680.97,409425.625,342034.95,349079.34,912315.92,399426.4871,1202680.82,434707.43,267169.27,507610.57,378395.32,460206.48,367847.0,616011.09,350057.0,188971.5,783185.16,646053.17,521896.195,767278.865,854982.71,711603.71,983144.49,186796.13,878631.1018,433292.62,449945.39,463548.47,430102.27,470918.0,261081.02,598625.0853,355532.91,359380.24,424579.5984,470227.49,463917.37,670305.346,853194.53,1072630.85,683544.18,150187.34,259579.225,1262917.355,257948.0,373970.72,671450.3469,381248.5487,196930.48,199424.18,444601.66,333026.425,268019.0,191683.3,49679.0,169279.23,168886.5,204820.46,784320.665,1220118.47,1516132.83,1110514.975,1551725.53,430170.68,129282.0,694161.743,235599.915,735099.75,546554.93,545729.2,726833.2139,3193121.65,396892.0,350527.68,161054.429,123063.955,375362.17,2016989.0,727934.575,546956.4,607405.42,467808.4,929816.2,766299.5,212147.0,864088.46,358140.0,199471.9,294956.05,69666.0,207879.56,239603.14,295509.91,207624.92,279000.49,149361.0,162376.229,69643.0,216819.255,197725.36,160221.205,154097.025,123763.898,517498.7963,318366.5,208809.0,149197.0,189067.0,109930.52,253929.14,109362.0,471803.6,306420.3408,188820.52,147017.81,228593.6,150496.8,179388.75,123870.48,118994.71,198789.0,186044.08,89652.57,89471.0,236306.0105,1187745.66,575784.39,438192.9,587521.42,178836.36,39749.01,378459.25,643444.91,408167.886,470750.315,165331.185,694419.58,219920.7275,196188.595,481652.6,191295.2,629693.2324,222263.74,365652.375,3483584.4985,1348445.88,1341793.14,488024.22,942162.57,2209707.95,1635310.658,369833.99,160342.805,446192.4345,268662.5,99502.0,352042.8312,202402.5,829036.066,852482.39,1750958.56,1761426.2244,2045847.71,446889.73,593466.64,248337.5,340314.5,278078.0,269562.34,228521.0,110539.1535,181851.54,218444.0,819291.75,244280.0354,229444.1,270940.46,2300909.78,297871.5,840035.68,416200.5075,645367.0,1501846.6,527730.15,948825.5653,526232.8,1015967.34,2260213.165,1751004.716,1197755.75,458221.72,301512.98,247866.32,265456.19,264567.4332,129213.5,730749.19,482529.985,405441.79,99311.0,233866.24,557616.95,357415.5,1492396.7034,129071.0,427943.319,242477.1,273259.74,198924.72,800110.1,100735.38,217252.53,170729.14,364179.63,346783.6,294918.33,452277.435,438314.106,269690.22,475960.954,214162.41,466811.465,397169.605,248700.91,891561.0589,371392.42,317897.79,175665.48,536585.5,321671.94,364451.84,405082.07,213571.22,310322.08,248603.1139,513978.82,854584.89,307026.46,804090.45,828981.325,255362.786,923062.5638,264299.59,290179.315,340301.72,588391.54,2004955.81,543509.19,455295.79,836593.29,262679.72,1145849.25,469708.0418,1697803.455,715976.06,445942.01,1654899.252,767094.03,569352.5985,307227.0,653702.62,1590132.9899,772813.13,925021.68,767824.54,958416.91,679941.3479,720109.57,1278955.68,1195100.66,1045011.56,2043582.3911,1638841.46,3396118.8017,3468510.0916,19902632.0825
2019-04-09,2610183.61,619353.0022,147728.5,269236.188,563449.8,762560.794,636473.0365,551337.52,1050914.3,1614858.16,621327.5,694310.5,205290.0,185845.5,613928.4,2986760.5,523966.25,1916236.92,918814.24,564033.0,206144.61,377283.3,603663.65,716740.0,353786.0,316321.405,255297.25,589366.95,564080.96,1163528.86,1322547.87,448961.06,176467.0,323335.49,300612.35,228990.25,520384.1875,398667.6,672569.12,58637.0,410294.14,156439.02,3672671.612,344550.13,2009201.77,371454.0,90318.375,527344.68,327092.5,255898.517,493706.78,1218192.4,214902.5,97664.5,371875.232,244864.0,98009.0,235223.0,1137342.23,236614.75,293905.0,496676.5,303841.89,205419.0,137001.0,107689.0,289935.8514,639471.5,3248816.29,176175.96,127245.99,248161.335,127024.0,644446.0,493672.391,253941.0,126903.0,344316.025,508034.66,237810.9619,136421.0,331561.0,428314.62,38992.13,263348.0,117076.64,1378916.7333,472426.2,417798.85,139744.553,227643.165,29289.1,208968.78,253450.67,316084.832,146560.0,177056.2,74427.722,442473.28,68367.0,550631.98,600484.565,263355.76,287177.61,443415.61,380269.45,547345.0,244416.5,1315707.67,903032.39,267107.68,2997070.02,302695.22,214934.0,949825.27,179503.01,87911.0,71131.96,420261.0,78185.0,322706.46,940606.0,1231959.29,576858.832,1060386.28,570448.85,264820.25,392100.0,189193.012,152192.12,235466.8,382507.82,552015.33,166548.8,551526.94,860752.665,405452.404,291108.9462,363728.0,1281455.2,1800995.94,1007278.63,495195.39,1077876.83,2576552.58,820783.8098,703189.06,652679.6675,179075.627,265986.9,454146.1,650277.44,357710.33,228065.14,1019137.71,801365.66,88955.01,376664.1,666673.28,817416.01,374553.23,506026.21,482602.48,426089.5,671342.15,713014.92,909839.51,705286.05,1159113.45,2070039.44,387643.62,517197.2102,525152.25,803368.4336,436936.5313,418249.48,233222.84,540666.56,271429.2,268175.0,1280325.44,489746.04,883601.8168,1131092.74,631271.824,568502.21,913816.7,277693.03,488244.248,386309.56,571265.58,261437.45,1108126.58,983193.798,564876.445,657360.308,337951.2865,358533.65,357867.0,275480.65,541092.25,469597.375,631026.14,396591.0,340817.482,441871.25,852147.97,255706.7,148587.0,477631.215,534543.05,296926.5,227690.0,253656.13,398835.254,148428.36,158307.5,658800.44,396053.0,258555.8744,267362.5,286809.65,244073.0,423985.4705,211225.5578,436502.823,290103.88,207880.49,385373.5,316553.5,247669.7432,376181.9,197602.14,395402.5,293630.987,60126.7668,454761.0,269029.76,736361.5,302902.45,356362.9,177658.0,531651.204,118383.5,966112.97,933419.571,1503607.1,1053102.21,1958665.64,924662.35,494365.39,601736.88,139613.39,168126.0,267033.46,202045.73,610033.3375,158285.5,79139.0,118679.0,767699.7855,721786.43,276852.0,279687.03,494038.32,506659.54,241051.18,344364.348,221081.84,342262.78,567217.14,178313.91,487647.466,317005.11,477188.0,295300.43,169737.5682,616451.7048,437257.26,424412.0,242700.4,410621.27,310070.48,315453.0,368153.52,483765.23,280137.24,134961.74,620503.68,306002.41,1011400.3223,384988.5,516065.825,349601.0542,897655.9825,582466.66,1141707.4868,579332.61,343973.96,462321.62,507896.485,232159.5548,378824.01,381933.8474,167782.0,483925.64,318816.3217,385547.2,407073.7,394548.29,822533.3,695912.18,1369402.4782,1578347.12,423586.6084,728771.078,301750.999,276839.0304,294610.3345,450493.113,504407.93,335042.5,347893.57,10344136.2767,877974.3,206878.0,403869.0875,236623.61,669002.445,275473.0,909834.29,1166694.63,375828.9699,936550.1942,449482.5,961150.33,752565.34,523239.44,704052.19,469341.85,791647.4,612252.7,452248.83,569438.8,156103.09,679436.0072,449680.36,1460653.27,1101571.5,917537.85,544461.8,825204.83,1500349.1827,771924.46,569404.09,491453.58,494326.25,693983.75,1449600.1,661277.668,732143.15,850337.1,614399.4,790115.1,789838.8832,865713.69,439128.36,749174.6,1004676.09,584071.2774,1014489.74,1603202.335,1047371.09,814116.2,874199.8937,1540569.9,1025758.662,1204269.28,860032.08,702408.7,2838915.7889,1577096.03,3590401.49,2063050.21,1602134.32,3103638.64,2287898.455,4011763.47,4849386.494,10188513.121
2019-04-10,1731992.9,29786.0,329295.29,753724.52,723450.6,1087080.03,1384926.03,799682.7,669322.7358,179237.0,232595.0,429045.17,339993.4532,294091.0,1047679.54,180592.1,573400.601,252312.78,648222.5,319240.5,884739.34,1278876.6493,383132.5,278879.0,898373.3898,211861.5,612114.4,492020.8018,1750793.492,4248314.0787,1687744.39,804972.48,258473.54,399045.62,595990.05,252036.78,2236808.47,706033.4,297382.0,307580.7,138915.69,250906.191,297965.72,297820.52,375906.1,325931.56,1062925.725,713620.64,1228665.49,1869370.61,2247600.7475,873537.49,299517.4202,425746.6,227711.07,909172.84,464178.8295,296866.94,98908.0,219501.763,505342.47,743134.5,485115.48,247296.5,296852.0,997162.103,1159984.1,227342.5,187751.5,619296.12,1472577.48,2507276.547,317017.0,1546118.64,991226.32,411316.18,785298.5,636767.9,468895.84,1351755.555,389806.856,2152896.9501,335978.22,271057.6345,284894.09,227321.01,257253.5,264770.15,79042.0,159534.9,168523.2,377583.4,158258.0,838727.9558,1237488.5,243132.52,5387890.04,521016.54,291980.5,308945.4736,284129.5984,269206.95,475038.64,247046.0,588126.751,238525.15,533046.29,350830.8467,661884.69,138296.5,625639.9,325677.25,759529.569,421621.12,266933.0,217735.21,138446.5,210147.6,504466.04,355867.6,118679.5,227582.5,284966.832,227663.0,179652.14,407132.316,308434.24,230531.5706,551267.17,632345.5,148246.5,345792.0,252069.84,632642.48,134626.22,197752.01,187950.08,912491.3,284604.4726,306628.5,161631.575,378628.3,190192.38,309013.52,332487.81,456770.0,529336.125,217841.26,92192.775,278763.071,431145.35,739236.5612,312417.45,402752.0675,475575.705,143897.4,2015580.57,1304324.99,1321998.51,1281717.61,149060.5,149086.0,890486.0,149100.5,596110.0552,877389.3743,438381.488,129362.22,374628.888,43343.26,441498.5087,308556.0,565236.924,914898.94,2498294.66,1413162.5,513306.69,583980.16,843350.7925,586320.5,536259.49,330914.59,536164.5,575975.18,218525.36,220808.96,219839.54,119286.5,147013.88,348469.75,298171.0,364448.46,867895.0124,217502.15,211405.3,429188.66,282633.8,387508.57,494399.49,377169.45,195026.25,248107.0,149908.55,809136.75,349091.9075,228270.5,145273.244,335488.0,381885.5,138859.0,908520.932,419768.95,1130115.09,327449.45,1131359.1,347552.875,228059.0,4115257.7,618745.14,328207.265,2828010.0,347231.45,99162.0,2686606.11,723869.5,1085436.335,185380.181,244328.184,225635.36,408919.1,292261.9854,89216.0,366579.0,109021.0,335523.03,602732.66,570856.815,247611.525,616581.7424,158354.78,227719.5,172843.5,257196.59,141384.47,256096.98,481206.58,199590.542,296585.18,148328.03,453814.51,229681.52,148346.0,148312.5,197829.5,296838.0,118738.5,301663.885,193709.062,128585.7,425517.36,151449.325,158502.23,296560.5,148311.5,188313.55,69170.5,118593.0,363929.07,355737.94,388401.65,276782.5,168424.44,402470.7229,237119.42,395015.0,279008.75,512757.245,187050.0,187641.5,295158.85,118478.5,410140.86,128219.5,573921.325,352188.2033,315757.08,311534.28,222202.38,496172.5141,3419485.445,768386.5242,490017.8958,665685.2624,531547.4429,247012.34,157638.5,364504.5,361167.28,206729.0399,719122.5224,157657.5,310353.705,383967.445,305150.5,208482.743,137892.5,473193.0,473239.25,88755.49,266409.4,321557.85,281214.91,217229.47,185437.22,256670.5,224646.98,236954.0,289208.105,1144943.38,148096.4,460980.9387,341080.3304,286469.322,49337.0,56740.5,345682.636,246624.69,217240.4187,457937.144,236794.2499,246834.5,483888.96,575191.6,267055.5,2610705.69,366239.0,138544.0,209976.4468,201657.383,287033.17,446579.05,651862.21,286694.0,264448.5,138373.0,378068.75,108117.966,256763.71,241209.68,2033312.604,253073.9,722961.063,429605.45,289937.5925,391570.685,286213.9,248557.1,3001873.16,512106.78,218610.66,508237.445,213518.68,511798.64,471295.46,290748.36,974742.497,666593.23,908697.05,551481.95,790368.6834,520297.48,1621801.085,1168904.4702,848873.4,443769.5,2219594.825,1353018.86,1110603.15,1001920.21,1392024.1798,749325.57,1615248.07,1568813.728,1215942.35,1715877.774,2313679.335,2423075.32,2265851.81,3518305.49,6138673.87
2019-04-11,2146082.21,167054.0,79181.161,235390.5,807518.55,589066.285,195807.735,88270.0,544555.61,677135.5,469938.65,186199.0,229162.56,31284.45,177589.92,670155.63,1357642.13,494419.69,306740.96,98952.5,1839686.7782,9903.0,188085.0,100945.2698,217826.0,138516.0,1009516.94,326725.5,504768.0,1000884.86,472732.39,158806.0,203685.8701,228494.0,201654.78,69542.0,280290.094,89299.0,99209.7,109075.0,198312.0,277736.5,151722.65,511059.4103,147665.71,378577.9514,42243.7625,154261.665,314051.79,165312.955,300121.523,149581.5,268128.184,313523.03,210085.2412,2370885.21,318502.1,208838.12,371307.3,293866.09,94718.73,447140.0,89459.0,90794.35,348189.0,79567.0,89465.0,102065.5608,169233.5,131014.96,119459.5,139356.0,475550.98,298408.9,131936.49,308333.5,541463.05,178928.0,301178.393,142907.96,148946.9,169774.05,89349.0,220537.3101,496019.32,446583.89,326916.49,486921.299,247529.5,296862.6,372682.107,237317.5,375258.62,633020.9439,669433.1,515976.2121,415387.3,473847.0,253908.26,169072.444,455878.92,130338.58,158205.0,384633.05,356621.5,484824.21,277422.0,368461.4,488991.3,258648.58,207872.57,1277337.8732,813195.9735,286002.98,1536965.68,896033.39,570785.59,335453.88,600773.2828,1150798.5598,817635.72,611025.66,805777.4198,374332.5,165268.35,683702.8209,689188.5,1566124.66,380412.3862,933205.32,855122.15,904250.24,694236.45,1098720.48,215791.0,782402.51,164047.49,137509.99,678406.3,476133.5885,1189475.0,206134.5,354385.0,1020652.176,805635.4,1297158.4,147729.26,808768.028,2000052.605,548035.08,1038281.72,741194.15,215461.9749,720538.62,767278.33,488975.85,1296993.52,137856.51,2178042.73,531301.21,501391.5,665558.97,423314.72,291726.875,126132.6,263415.42,1484299.405,970536.5,196994.1,470741.5,247275.785,937415.58,2144209.26,782501.13,1119064.36,441357.0,244728.794,773274.48,813395.28,1127784.77,993364.295,3209461.17,474572.89,946572.7425,662643.01,1346922.5548,286490.42,381607.1,887822.95,713320.91,1017683.75,1198352.9576,691782.432,700846.35,257750.71,403620.09,107954.28,19612.0,588757.0,200726.77,649711.825,1282604.6155,776661.92,194239.2182,245872.52,872385.06,554132.86,98370.05,186862.5,641292.2,659680.5,151476.0,317243.398,815774.692,177226.86,196942.0,127983.5,29530.5,237855.0548,1025835.3274,167476.0,266198.87,108298.3,973649.81,474201.9621,97117.93,225240.38,1284501.09,823451.25,2356514.49,1794212.0,197209.0,1544990.125,2722554.64,1269800.6,830243.68,749474.8421,849750.66,1173715.78,355517.98,1253945.7292,82384.7675,591820.33,82339.32,187637.0,436421.045,98714.0,142431.3663,102413.34,208133.72,216725.8415,290751.43,395535.9787,153148.21,202354.14,325348.8,444882.3,172424.5047,1063049.71,2066173.84,247244.42,247215.0,168393.82,148244.75,319426.72,637776.78,165162.5927,524046.5,524081.5,331436.28,128509.0,39516.0,297678.83,247120.0,293797.0918,79112.0,128513.5,79084.0,315792.36,108806.5,168030.0,217539.31,335295.98,191038.0,190012.07,69294.0,169601.4211,178232.8,195931.2191,237667.9,174023.8849,308157.125,378162.6391,177878.82,149474.0942,140939.58,128539.0,59329.0,197789.5,152962.86,128561.0,89017.0,138436.0,227315.7,200063.405,59295.0,103143.42,59273.0,79002.0,108621.0,304179.0,163525.284,98696.5,177733.5,39516.0,123480.2885,69172.5,59299.0,144102.14,133823.48,254911.963,88939.0,217991.92,255996.6872,158122.0,227137.0,167790.0,89463.264,108775.9,138197.1,384832.5,305996.5,756591.94,286377.0,158123.0,247739.0,116230.0,79085.0,39533.0,332828.95,155653.575,444762.4,270299.216,59989.74,108718.0,573576.88,138455.5,51060.78,59355.0,57162.98,126362.3564,148286.0,810435.344,199153.82,311603.13,306328.0,207464.5,39504.0,258464.92,69136.0,197669.28,871641.64,88978.5,213841.425,108682.0,259243.3,154029.7,228524.585,246980.0,431813.9,118561.5,292923.24,1083818.34,315927.5,313213.967,238909.4,529323.73,788424.27,417197.16,1020747.28,724812.96,1541953.3123,701651.312,1371671.6,1125591.484,852934.07,1163486.45,1176135.73,2606970.882,8634587.89
2019-04-12,7587371.75,3786632.7989,3039540.4538,1907865.86,2237345.8686,3463326.3275,2114875.31,1521768.441,1998589.162,690715.68,2064391.955,1889262.52,1519643.4,1419437.202,1171704.17,1012115.7985,1150376.6,1180461.1674,5274786.27,2052641.7325,4049053.3033,1116174.47,584482.39,1261564.72,1414746.62,1165641.312,2533369.715,2516578.13,2022936.39,1311043.022,1447633.583,1830652.8008,2504784.32,1683335.4851,854212.9,960739.625,2311306.31,1069120.504,926653.4412,1478456.282,1259428.2229,1106850.7,839257.215,848842.2,466201.78,1066896.4,561748.58,525210.4343,671738.74,647354.76,992080.0154,644780.14,1942651.95,898684.79,1253141.638,372232.0,1534138.135,607860.554,260990.22,418362.86,781171.915,2330800.523,1626339.81,15517510.345,27118288.81,700412.84,665067.13,766246.61,574707.5,867136.28,1062961.1652,646726.8256,486402.465,1359990.531,1124562.3167,754562.98,1028160.5,607295.66,422030.63,472548.59,729328.8534,550891.94,683014.63,590816.16,396546.2,412063.0,828517.42,443942.24,777037.125,445575.21,255874.55,1060363.296,452719.9264,665403.16,613215.23,324448.6051,838817.356,347338.85,143984.1,216099.7,563410.42,339981.73,359366.41,839912.39,246863.5,400316.1,409972.05,368625.64,527806.32,256994.0,289371.6885,771086.0,514403.5,2400836.99,688836.809,919203.64,216837.9,303514.98,308364.28,441779.94,411750.232,769301.72,297932.84,2879220.54,326938.03,393286.66,248930.64,487405.12,254823.5,587650.8605,433509.3806,567105.17,217356.68,301694.1152,380686.2393,385058.69,243407.55,298536.0,763859.32,240821.5,175212.28,756309.93,441951.19,353796.14,748254.895,292044.63,568367.76,240190.5,425390.334,227337.3861,279538.48,308411.6954,14020582.65,510484.0,4844617.5,255637.22,318990.89,873924.1281,158672.3,380240.34,310899.3688,444010.6,165322.0,377010.77,350526.44,496188.5261,416378.92,989604.39,665604.15,431052.917,251434.53,164352.16,975911.025,681754.204,260805.8,336930.37,134689.2,281651.07,439650.86,506795.2366,563292.98,599950.0,225534.572,227902.91,190675.98,211957.3102,351370.45,430084.17,402954.05,579517.0,1180885.24,1421263.71,1694324.2,943752.018,2164957.25,1750492.675,2182177.17,1312251.66,2364683.7868,619392.978,542328.09,389082.946,488810.88,603007.35,488427.84,1054242.8325,646578.26,3153783.04,1295273.355,400933.2448,758247.29,2117911.728,1537215.529,6607316.425,534353.35,912273.356,701954.66,486731.14,729005.2896,1934733.578,12632955.95,614787.6,745613.026,2029795.54,723281.0016,464081.16,447335.9,1105042.4,516434.31,649588.19,834065.79,876888.905,813208.0491,369452.825,1497991.22,1343950.88,1929587.57,2039125.175,1446587.45,924830.32,1725909.07,1575956.25,1530957.38,1153177.79,577390.955,662094.1,1034909.3809,562255.92,807785.3658,599124.685,1467898.145,1594502.51,1407597.87,1342649.65,2164160.415,1308124.39,747566.52,1738515.89,1046297.14,1690299.48,786194.7118,718048.652,2712903.3956,27988145.5,275212.62,790437.26,316271.07,1016301.73,2514362.3109,1011143.19,696629.7,1248623.42,897678.078,485606.38,832209.94,849923.09,1007218.4267,587776.415,443996.5,1336870.032,719268.3285,897536.7653,629171.385,1539196.3256,1268081.3852,845597.48,1720078.1,2038583.18,1086090.5,1544482.2964,892297.76,1569058.2506,864632.86,586773.9,1454294.7234,1252431.081,706787.53,689520.24,222429.3601,1977867.183,5111666.8042,8720370.3,493112.6419,638953.91,1540415.89,672322.49,817117.63,538474.39,930237.45,894679.8,2820493.2251,620741.3336,687256.638,6613415.31,1168737.6968,958069.02,1722134.2,1895796.1,788532.735,617127.3496,2151354.8107,4379423.975,2816880.915,9565224.7435,929416.539,1110602.04,1135770.7042,1296577.43,1429784.965,889437.57,1399877.135,939316.03,946956.025,1380654.7285,1778451.85,1182407.55,1952658.3,946368.3226,1013820.798,1116078.48,1089844.39,1434312.6,3785442.61,1291057.269,1273083.24,1739500.305,1469354.4834,1367477.18,1267854.06,7271650.55,1128209.133,1653065.395,4066009.31,7229336.25,1015282.0525,1160153.96,2846867.06,1396575.4014,1190080.395,1256472.371,1985104.64,902555.455,1385017.425,1277061.48,1560370.575,1173426.43,2265968.25,2539989.7425,2641291.16,2170150.74,1694599.48,1412111.53,2323106.6016,1869685.1525,2098867.21,2059170.8307,1650917.7902,1926558.78,2026107.7054,1789157.3428,1754279.1442,2348948.1625,2825031.9942,2725386.5145,2474686.472,3653866.5402,2635347.3526,3896515.7626,5826929.7321,12590309.4414
2019-04-15,4136592.132,1067683.3545,583508.45,2097785.82,765781.92,1301398.988,1410370.19,2350533.9409,603274.96,809645.5603,652440.5,643462.0723,949540.41,897569.81,876070.2525,648683.13,391000.63,1326664.45,678996.26,487796.54,711551.1727,834352.7486,929366.35,1232788.7,544777.3014,933612.08,3691552.994,2121449.84,588403.92,538192.03,1203456.91,803342.24,1496924.2362,919865.8,975766.5538,1138853.9485,381153.077,2124816.236,809663.68,467627.414,631651.79,818545.92,341550.0,454962.29,516892.31,455139.795,668250.6,750200.6352,650220.82,320344.5,397019.0308,877835.9,2724452.5,1702011.881,1010398.84,669941.23,812371.02,802605.46,1044186.75,564169.73,4741505.2359,1148254.5806,1707745.87,501337.15,276864.584,197714.125,205394.5,500312.48,527847.7103,536392.14,1680710.2536,233224.35,369440.68,399626.18,249127.66,225340.0,143480.0,497006.99,381445.16,825227.27,871304.28,466762.58,615427.25,770982.7222,2036096.26,812860.38,320471.375,571775.56,436573.43,2237411.94,1969778.775,574763.866,534053.39,380569.43,276311.0,1492022.72,398688.25,789755.045,726245.0,528519.65,326836.74,250613.02,164080.0,753683.3516,535105.95,1004188.9779,3731060.337,789170.0,286018.5,490945.1304,421969.069,305853.1919,259523.5,1204491.88,225185.28,452619.295,315607.24,626051.16,265372.0,543769.36,316680.5,332483.25,121252.2,596480.26,527785.4,143215.9,306746.5,542028.0,494905.52,296779.75,1759848.29,905683.703,1651958.8,798242.98,676441.36,834991.47,543504.96,1583442.96,4685920.0,439524.55,403571.04,627722.64,802992.85,455429.7,308672.1,226504.485,993660.65,180131.2,415039.675,133001.0,361808.05,411229.925,441952.41,980167.1,296280.0,1387927.97,133007.0,460150.5,606377.57,1357806.6514,613800.02,1104177.0,327000.0,215058.75,183974.0,374352.205,183906.5,229259.46,262985.7925,439188.0,164454.98,143077.0,153331.5,193581.17,183890.1,555977.72,265036.0,81666.23,216356.0,132654.5,418561.98,256932.05,438860.82,683925.66,163207.5,214357.75,473155.44,61280.9,551699.1316,204176.0,219076.32,1709726.65,337141.2,163209.74,234968.31,295978.5,214487.42,132883.64,226585.995,306471.0,295242.76,143002.5,282282.96,469548.0,163367.5,183761.6,353266.3,194186.0,293032.02,61307.5,500990.5,96516.56,339176.7,366896.86,912137.6,737471.3,173898.5,194326.5,725072.8,173757.0,382633.2958,122801.86,261634.1235,577149.09,1065933.1422,280277.26,203113.4,1275889.06,341404.9582,122481.0,2705158.3,496296.87,332929.145,102210.5,92030.0,419400.5,153380.0,206575.9,271891.85,102373.28,266362.5,220158.005,402446.7444,358228.0,477079.56,339143.998,547588.11,173993.5,471037.5,409674.0,216345.895,791621.4,1107368.69,195464.02,334255.8656,676014.18,594540.08,536063.6,269284.136,112748.4,440561.93,123996.1394,739334.845,363418.77,164421.725,501900.725,336074.74,361397.175,155157.495,486661.29,664576.1945,459244.8,165035.4,650924.95,258464.07,275231.45,464095.7,606801.135,175000.6,376508.0,492076.64,335712.28,381009.4,570522.0366,341917.49,133192.0,328549.88,392562.5,216839.254,1682641.511,479097.03,4096039.75,583371.39,214857.0,378144.37,556777.508,143071.0,359018.0895,226977.89,304584.02,378451.0,294407.7664,248016.8,142896.25,491173.36,461323.8268,721074.52,618880.47,213833.5,600755.58,256285.0,1137000.058,721171.6185,553781.025,387817.84,1283279.92,481407.06,4845119.01,435531.0,4428820.67,590853.3086,477106.5,436972.5,389942.9,409867.5,571103.43,345772.0,518861.5,188390.3,508571.0,354321.6104,471188.69,435086.16,733424.6,2894154.22,500073.65,1557977.2,306190.37,244162.0,366016.41,407832.41,253722.37,254487.54,508009.07,300540.078,378235.42,435556.784,911145.275,406700.5,335444.0,394575.7795,2369154.048,480236.1,423247.4566,284334.9131,538840.72,376250.0,406441.92,637492.9506,1283323.55,921191.12,1363433.88,381748.74,1135353.64,1814994.58,1037767.7228,1706611.58,841955.985,1105966.78,1070495.3,1021255.52,1089286.0,1492144.767,393097.04,1460708.96,2134669.7197,1712869.3,1880873.24,3078339.5107,1255734.385,4350524.974,1315725.1654,4187199.89,5502910.9999,2530605.2197,3404254.9899,3453337.7529,5711711.446,8881270.5781,23505623.557
2019-04-16,2795335.7473,735632.2812,866435.905,499761.3,1031453.16,1035249.57,406742.0,984634.41,3814306.5667,2158572.94,1104533.26,998516.0327,605224.125,980318.43,482951.4,393480.255,409977.54,368914.7,426175.1225,405746.0,537368.55,545952.24,1031631.31,440384.76,567384.5,323461.86,1324849.92,874829.36,428118.1,232961.5,4875831.25,2907051.4125,1537162.64,639275.5,689799.68,1765065.7,666955.42,1043302.363,3133562.41,520085.19,819689.68,319701.5,452993.89,1173051.3268,1331653.19,3177649.0,649681.3672,740744.405,517167.075,1747794.92,592463.4,872817.01,508442.5,557500.1625,508466.5,1153065.7907,1327653.41,3779348.03,535100.504,846920.5,584005.952,480215.65,170255.8,244341.45,569963.3965,538103.96,520117.0,400484.63,452630.065,366465.02,646428.1827,320987.441,505728.01,591722.59,626132.52,747584.195,573762.3,705920.65,539988.5,205377.76,610912.98,695566.42,118373.44,2245931.01,641967.0,521453.235,622629.258,193433.2,282527.0,765286.6,223605.5,479979.4875,622343.7825,208118.9,560289.23,347997.38,504122.15,304071.48,2992129.34,638325.25,5035527.41,678871.1,391316.0,508473.44,569931.0,356506.0,275082.52,142351.0,283176.3,173680.3,598821.95,426305.24,388904.5056,181358.45,675340.78,263037.64,385885.5,235104.325,246783.2,365691.0,116815.9,844249.865,203070.2,142417.16,773145.5456,447741.6988,337499.1994,333743.6263,618798.14,764632.575,310749.82,121903.5,336197.49,315261.25,233806.82,315284.78,245868.7824,213530.65,294943.0,162881.5,567314.3491,450939.42,295859.2,385540.7828,431134.3266,489409.0,1012568.61,880940.858,686885.65,722005.96,680676.3572,558804.56,410932.96,474598.45,717426.86,389387.51,388421.54,558884.52,535423.3,339465.04,273283.93,287401.85,372877.5275,212274.6,214751.24,404982.82,385728.38,286005.12,371267.54,511049.69,220803.2,655589.969,232636.64,803492.36,461246.09,376183.3,364094.76,351127.481,193926.92,346771.0,359506.82,275584.5,450985.79,418723.0,394317.75,538631.48,247088.44,307339.44,94283.95,441330.35,301882.92,603000.19,394902.4192,337677.79,142889.0,153149.5,467969.116,275802.0,109077.52,204255.0,204201.5,169537.77,142902.0,2656527.91,530130.47,314844.2,246925.6,234766.0,225458.0,631924.78,247909.3,246762.51,192939.141,484463.5,132645.5,460955.08,182224.65,274265.4162,316479.62,81631.0,212262.904,235936.72,332110.08,362016.63,611884.04,381267.405,309048.58,114882.52,504939.0713,364129.0715,450594.55,142904.7,153883.6852,411236.9206,260266.53,172800.22,267254.2,284874.1404,385808.895,111454.175,624766.875,285647.75,38460.54,349198.75,183310.6,84200.18,112105.0,851299.55,237866.415,336571.85,258134.42,383580.78,230541.42,290696.94,393645.04,463216.86,677370.15,367029.37,456891.38,642870.5,42549.68,476772.9,306011.1815,112248.5,340603.7,429227.84,275176.0,198865.94,254784.0,340214.96,285359.5,784694.2709,484382.38,471966.5,412229.98,624714.2982,571191.5,705109.12,281258.71,738176.36,340161.2,325020.0509,486249.516,573341.8,342018.6536,781715.3836,920954.3414,595664.335,435787.554,3021521.725,646088.03,244753.96,5212924.01,313075.9323,145740.012,341523.1332,465979.5991,1171709.42,297741.13,256801.5,328301.8865,178557.3993,317321.27,256823.0,135968.21,225971.5,359263.6,113322.8145,238352.7877,360017.96,228181.62,195137.0,184793.5,313216.286,153909.5,184676.1,194971.0,659086.05,533327.45,316624.656,112809.5,317935.0,157193.82,303791.73,164132.0,312396.95,720731.8,229698.1,436575.5952,163678.4603,272010.7,225574.0,238857.0,197725.13,267495.6438,1701387.9956,379214.03,163941.0,204921.5,450961.9778,287681.4632,112745.0,206912.7517,876288.4683,266506.5,135819.75,326723.779,276625.5,517941.5399,316135.56,495400.9,61418.0,396281.86,305906.17,376972.3,574283.6044,522395.65,946308.705,297111.5,357119.87,347339.4,647023.04,863891.34,926540.86,546303.76,1024196.5,485578.0,733286.57,727801.1662,593742.1094,700662.31,548158.005,499165.7061,809747.56,454211.85,986985.24,905898.39,997556.96,625186.6194,814793.76,1080891.1699,1443759.74,1014851.8,1151853.4396,1206436.9164,1379694.0196,2077102.1491,2515941.83,2961745.98,6708291.5298
2019-04-17,3862339.6,84833.625,905158.055,647948.87,396990.85,1320490.25,1184661.79,647242.97,1338213.92,703593.0,414492.85,2739976.0,394074.5,441642.3821,1134550.66,363699.0,176645.0,132347.975,124508.0,239879.34,155586.0,841003.0,259241.0,93262.0,186593.0,194102.95,218163.0,197216.41,239069.05,0.0,653068.63,610503.18,433442.7068,453968.0675,1094373.2,406902.0,125092.3,218943.08,218490.0,186954.0,268330.907,290120.5,251039.116,561323.5,311495.95,180347.973,238687.0,658428.22,491004.23,605228.095,764706.075,352437.0,1746731.63,327941.6325,197100.05,114222.32,145307.0,239129.585,103836.705,62286.0,501282.72,909729.4816,135049.5,384393.5,187010.5,639818.2489,301562.0,278237.7,294297.012,469846.73,178564.8183,166376.87,222395.93,134736.0,233184.425,439132.735,223225.535,227967.0,227501.42,226308.7075,284076.933,196680.4,300057.5,274631.2,328035.1,667036.795,291017.9,449546.78,189456.8,428562.12,576630.2828,330041.26,325935.1044,471161.18,3374958.3,891806.0,612656.0,491845.0,657266.9,1495831.58,477028.0691,667679.25,320819.5,1713918.8434,237565.29,361798.0,311351.4,899850.0,361642.5,3511680.12,238498.175,454815.5,413461.0,372533.0,548314.0,527110.75,135276.9972,282622.41,1788364.695,165443.0,495719.0,788478.315,281955.14,774027.5,738414.0342,214433.82,185896.5,320204.5,640054.75,64178.74,144473.21,122987.48,284195.7915,237352.0,124334.7792,372258.35,456484.7684,237124.0,653616.2,347008.1329,206344.5,1992872.09,195718.0,304024.3775,275842.1975,258158.845,205932.43,298458.5,271336.062,175317.11,325629.185,1136659.5,175587.02,174611.0,266931.0,440577.88,1645456.43,854403.62,1255005.705,1235934.49,555188.965,401654.7,778677.625,503041.55,221031.805,615575.0,378209.17,296294.19,866551.1936,534269.32,643335.92,540072.12,2796634.42,205258.5,174352.0,184666.0,828828.075,245711.7525,414450.77,662107.2,578972.9,547184.43,287571.2,698184.4,647465.801,548665.3,689093.399,359215.0,734647.5,344402.56,690090.43,787828.76,1495317.78,567790.85,369167.59,219917.5,112764.5,184719.47,122907.0,194740.5,246135.42,185481.13,184550.0,360038.6479,399741.5,235845.92,256436.05,198051.6,199783.175,194722.0,103373.11,256125.5,167640.54,263752.7588,122904.0,102480.0,133328.47,133120.5,184313.5,102442.0,71111.4516,102439.79,295396.7,112627.0,203371.4,266358.52,151355.88,2728064.665,76942.8,310986.3,164255.9,489862.5636,659750.16,493091.82,617355.21,6378920.87,736993.22,935275.53,576682.02,1069647.47,287876.0,113115.0,388797.4215,92498.5,113104.0,143931.0,133665.0,41115.0,119724.05,71956.0,164484.0,102853.16,166906.84,51394.0,461285.27,195197.54,454490.414,475214.85,92350.5,153871.0,435586.0,167408.5596,327874.83,248436.8,163102.91,358117.187,92309.0,311974.7944,436758.84,482051.43,92323.0,174339.0,1277596.8361,174218.0,133250.0,86229.14,354117.0354,51285.0,90452.8654,164062.0,286875.0,758343.6696,234887.2,234537.25,383363.0025,244756.11,189319.925,145866.2518,163206.2805,61393.44,262319.285,173783.0,184001.0,238766.7579,200328.1082,190779.3861,357125.0,168479.725,122490.0,132604.5,228551.286,51018.0,122458.0,168392.9899,270243.25,145397.38,264825.15,142857.99,122188.0,285034.0,193390.0,315337.64,234069.0,142488.0,189086.66,305607.88,269878.725,70739.4025,94853.905,207581.4,414754.8441,234186.0,71277.5,293982.08,320511.7531,185063.27,193289.5,124178.7,101675.0,242130.675,373420.455,132196.0,152601.5,274779.0,223514.2675,464482.81,234055.5,50892.0,326001.265,203384.0,269229.575,477383.0,152355.0,271881.85,719168.895,467234.0,340557.73,324676.0,248796.795,233619.195,165885.73,262268.24,376037.5,233824.5,279401.25,786697.7782,509280.325,996137.736,457800.5644,213634.01,156254.56,613215.585,192053.2,541943.03,377897.7748,392109.2,554161.43,1379487.8355,414691.84,469126.25,350199.32,527337.81,499211.0,554175.58,268299.04,842643.9656,985480.98,853070.76,553212.62,725809.66,989900.97,1833146.8704,845023.55,1844736.95,1485732.8298,1682232.41,1048153.6172,1855958.11,3237377.192,4924685.037
2019-04-18,12389922.81,289262.9,132892.99,173854.24,734293.5,346649.0,229869.452,639965.0,209069.128,325751.0,287898.7028,122295.5,237889.5,131507.18,347372.44,20420.5,224416.0,224462.0,285492.32,435212.65,102229.5,224854.0,60417.1354,120725.44,183729.0,867392.99,112324.0,215917.23,235234.5,1025915.72,112500.5,760486.52,2015593.4875,725167.75,265565.75,879295.0,302181.26,368172.5,451951.65,317364.5,418787.66,256039.72,759246.03,204834.0,440161.84,847409.34,164014.0,112760.5,41008.85,133225.25,245972.0,634658.82,678262.1,604812.25,225453.5,404696.04,758717.299,369172.42,236085.0,195009.22,1307559.48,415043.835,267037.5,381850.96,686630.33,229015.85,82181.0,476729.4,133571.5,61678.0,195158.0,310201.7,616250.0,861985.625,976351.781,316672.36,318896.0,895399.833,923396.38,608465.74,1751758.775,679149.4,740242.135,421945.5,1049472.0,360322.0,885515.5,941786.54,3436058.28,505115.5,410278.81,299211.5,167166.3,237321.37,618713.0,566643.21,288638.0,367911.75,340825.05,268370.35,581548.64,447791.2435,278780.5,358575.19,615223.7,401961.0,329475.5,198871.2936,577036.28,598014.5,197811.21,800308.048,349386.26,353110.6424,237172.0,402403.5,134187.24,423304.85,1414426.0,974575.88,323022.84,1137340.24,271146.2,527480.5,393773.6,721711.265,70045.36,308709.8904,386100.7508,918820.841,390236.32,290479.0,283554.07,549269.5069,559933.2,254652.9,186758.68,5948524.5,610510.0472,889558.73,190925.9908,508387.73,978801.9136,609180.308,271950.2046,496870.0,155461.0,545715.1,323190.2,176346.0,266452.82,6488154.2265,2022240.2,1461117.01,2508509.9456,3480393.2804,5168609.4768,1082526.0,1159540.18,565157.3701,213006.08,338353.2,285645.7,1064695.42,290944.0,202527.5,160975.96,253787.85,439885.24,198392.1071,176417.67,808628.82,218035.0,389031.0,145298.0,384072.5,314506.2,176479.0,397165.125,667787.03,443117.2,173663.46,155664.0,74410.93,342979.3176,460439.0,255620.72,702296.46,866723.318,233650.06,165959.0,207396.5,113530.4055,249075.8864,109578.725,234910.0,363425.5,436428.0,805149.38,93566.0,112056.32,333516.84,270404.2,242752.646,458055.0,448270.45,103998.1,182944.41,93586.76,303690.62,293044.1132,302651.14,1715800.792,1248584.71,309786.03,210921.8964,4318713.8,2500255.8471,182289.42,254204.8,100740.515,364602.0,507035.109,294698.57,156339.5,188809.28,126359.34,406240.5,333321.29,342747.36,263005.9378,359929.86,211177.0412,338587.85,373496.72,187050.78,361061.52,191121.65,301812.55,241180.4,345794.7,138279.61,309271.5875,739551.4602,161157.189,202192.97,137985.76,332282.86,363676.6204,419083.06,427029.5,273201.94,353070.1,900656.98,269445.4,1270700.28,187481.0,41634.0,1477291.655,426719.93,555985.12,1144092.49,41627.0,370431.456,187239.5,236896.64,559210.9449,275770.89,145688.0,759736.955,474818.4,617176.784,462932.8,239661.4673,328874.67,320993.72,1174318.75,42910.7,318710.17,191286.31,248303.0496,1035775.78,277435.99,424958.078,310994.6,227930.5996,376841.135,497244.18,290218.31,676512.4042,263312.68,214958.28,266530.2,432888.863,70072.565,504490.7327,608742.7,280232.75,142617.7076,598929.77,261548.66,467894.9052,168889.44,516400.32,497346.18,1080406.27,415150.6252,495727.3,381339.58,239024.2,239109.91,693795.51,547732.53,343100.42,935522.5,264329.09,828400.61,775063.3109,3581491.0864,1191321.2676,730188.6936,693632.88,434821.42,259140.0,181736.5,806845.07,221324.62,400556.33,230011.56,312403.61,288248.8,529741.228,207679.1235,422450.18,1060071.82,375538.7196,770410.83,1034687.4856,2487974.81,1240017.34,1010798.805,266271.42,62265.0,290065.38,156975.14,354812.64,669017.56,1437638.131,324602.18,114227.0,988161.79,984219.085,1185792.958,1528603.7135,225533.56,301555.9,1391170.8007,388673.01,284985.27,267807.6535,1280717.4655,345959.4,919749.745,451688.088,261722.8536,681004.35,559006.24,706374.1712,756733.42,455420.39,498002.67,450703.8,853232.45,1509220.4124,4821042.2517,4245190.594,1324664.026,2179028.96,1834529.66,951162.45,2678451.141,1870961.55,1560920.909,2784660.02,1831596.56,1655278.42,2410835.18,2417504.6346,3812622.1292,6792739.0087
2019-04-22,3323244.73,676138.2,1098332.6228,807481.49,743531.83,835176.7704,387923.7,391010.6,1488399.4924,901542.5265,1341479.46,960167.47,596202.1536,538493.88,5976075.77,235462.96,416389.4402,379632.34,231537.6,770833.7793,94436.5,251469.0,340351.53,388898.5,298383.79,576982.19,220635.1,245887.45,158068.33,146744.5,613368.0061,2747175.3966,31499.4,190175.14,383606.91,10503.0,307124.64,478132.62,1534382.516,968220.0,349020.66,1013030.0,551049.2148,458788.52,191324.4,188025.07,391568.76,471245.835,173848.095,228204.9,247361.68,1020609.14,1271209.75,368816.0,532901.305,300536.74,730406.875,1754499.145,677465.31,1575389.29,664492.484,741199.86,1145220.3475,3588663.082,903370.736,654135.76,499611.475,2807180.31,447991.54,545855.9757,484187.48,432587.75,205575.152,181711.26,1291912.572,476224.903,297302.3698,1471999.52,1840366.09,196007.9,531738.22,560042.0,626291.543,612777.019,640032.42,1947168.0,422936.91,518479.0,222126.25,634438.01,519235.6312,540980.6,253299.5,435977.54,105373.5,225148.32,740525.57,103192.31,343682.7968,630506.935,568362.769,843552.94,1122451.05,586200.83,282767.345,494818.2767,273273.63,265116.764,320393.2276,307276.34,436162.11,366695.63,875808.02,341640.71,333478.03,520575.8,264344.0,187873.26,355270.48,183466.91,184502.26,477122.99,353831.444,425853.8554,201016.0,710537.56,1332239.625,338082.94,539062.44,757394.98,1215240.195,583402.5,191378.26,471932.0,119458.34,569059.15,1330769.8,502145.97,801468.78,293695.2,705865.292,1473227.11,880189.29,1208117.2251,1855895.655,655945.2607,2252703.56,3460243.23,2136677.7123,937523.2034,516296.04,585976.61,393770.42,315154.198,813515.515,856242.2062,1486597.15,803164.855,367950.1,771057.83,308973.514,552050.73,601830.85,182196.28,538758.96,951528.88,235033.0,170904.5,1348579.46,192297.25,612376.44,172535.57,543885.5,275196.14,260728.54,885127.91,454919.272,463698.05,289538.16,409518.825,408071.7,992384.7968,472772.5832,455841.13,406371.93,320822.42,276275.0224,115052.68,861080.05,271261.89,505751.45,224433.44,275006.615,307883.0,149852.0,310375.99,311168.04,64245.0,406955.99,449798.88,139263.5,428998.68,428046.5,355367.5,424887.629,342251.0,908217.0,457502.8,293108.355,160382.0,260541.56,313665.62,535001.0,983895.7418,462589.08,128499.0,191661.85,404318.41,455717.7392,592210.7,444674.43,236125.4,310389.0,148404.2,487042.8489,185686.579,117782.0,219467.3386,258196.9,1008587.0538,225678.3,185666.56,370591.75,431952.46,374560.51,409420.735,460444.5,299909.6,418235.0,704487.4,557061.04,96344.0,282649.344,204403.81,348704.85,179894.62,398793.0052,226131.67,439015.5,254495.7125,674466.515,128623.0,139568.42,821015.74,461369.72,328411.14,246645.41,182282.0,375282.55,192995.0,117790.44,1214826.29,1359546.26,1515625.085,43549.8878,1006274.46,759223.595,681775.34,528317.0528,933446.61,265798.12,273996.21,366691.4,115749.6224,344749.46,189944.35,425775.9172,94737.98,247095.1,214928.84,363397.74,342363.26,461598.72,560906.09,335698.78,345137.5912,377716.99,106799.0,211989.593,309201.04,298847.36,343335.178,279210.75,458766.52,199232.915,347734.057,601677.4602,367181.1095,649820.9655,647076.9588,170653.0,324650.462,303971.125,289660.4,302112.25,276960.84,229754.06,340660.0,179479.41,488914.23,362284.6111,3957318.74,629994.39,832201.01,718248.84,385085.492,507568.8585,591222.8009,414440.75,337033.6,299749.2361,203760.05,285970.23,163743.1,419260.25,771859.19,1135654.53,526371.79,648144.01,666507.525,292042.53,497042.79,366464.79,266948.5,415675.56,325901.7,405961.14,600149.4316,654994.8,416227.5,411644.8088,587471.26,270662.88,252352.705,450598.8556,244688.885,269159.6,773522.24,550857.098,769749.8,405067.69,309270.5,395947.72,339474.12,489859.3,523495.98,226655.28,361929.9935,657179.775,1196479.63,892081.38,1927780.25,1205159.175,2975103.82,778603.21,925338.81,1341369.37,822645.87,1078647.41,946328.36,900018.46,543748.02,627966.215,585787.185,1804829.134,1866485.89,1313128.4,1069343.026,1289571.75,1584209.16,1289694.88,1691473.0701,1924690.155,1856709.7345,1868836.6227,2611748.0295,1551756.6713,3063279.6847,6536996.9272,12452862.352
2019-04-23,3210207.2416,463383.6209,499983.97,747612.4848,755747.57,248744.08,1222396.762,1754345.9854,257371.0,612972.485,562246.4568,2294982.58,480243.5,644064.319,235087.0,1556498.944,1408963.775,1300314.12,430913.0675,727329.475,324542.095,897625.77,212897.27,730526.354,413997.5,339823.0,661222.4,10888062.76,928230.1,1731311.295,594353.49,689620.335,336378.548,527987.93,2563027.225,3971226.96,700609.34,1190435.965,740294.0,3551785.09,338753.12,1261936.0,430543.08,1634223.594,1870437.2479,1853117.29,1390771.565,775774.105,790514.7,649670.52,511941.0,1094623.61,409782.88,465609.295,1009933.145,74213.01,234888.06,461202.33,172162.8,244103.0,757407.14,394459.61,213191.33,95686.0,234027.5,180724.5,244463.7355,108041.94,317687.352,154341.925,211661.0649,227486.15,416773.39,379153.54,259062.48,258684.306,368315.61,298491.82,578641.39,255707.75,312582.8112,735574.1,426131.66,1611402.91,246198.68,179952.65,544610.604,380206.85,268516.19,352592.6,245879.5,630106.26,359062.4965,308578.71,653601.45,1308481.11,493001.84,695264.0784,759930.51,224831.0,423546.91,278710.4,657673.6,225209.0,513352.7861,550047.81,257468.42,987727.49,139384.92,311019.5,1136748.6,238315.68,278172.64,879527.88,1124377.06,246126.0,160317.0,419479.14,2221687.09,405911.75,853828.64,535011.4,667784.0,438604.9422,302213.05,170639.02,378234.1,234530.0,170647.75,610473.7289,533755.0,9325156.0,378028.53,181279.0,149368.0,309150.7782,225363.26,2236647.6675,351954.5,366967.14,354478.4965,1251868.1,171024.0,256669.0,489751.96,232929.1925,171259.13,1046862.2565,910382.8188,954086.115,420679.08,988906.69,516263.882,528737.716,428134.2408,700601.8,816441.078,676362.784,581597.622,214668.5,558482.69,193763.706,284775.008,603156.515,1221474.35,1125877.275,100619.96,483775.43,317196.301,645326.46,362448.57,401669.2,570363.265,350683.603,248508.1,468483.947,598902.34,453068.13,367793.97,567058.1,419184.6,515638.0,527994.8844,289915.0,489026.62,373718.765,732334.04,894589.0,668835.46,485169.027,633391.96,4495902.71,597318.12,567884.25,436098.585,658394.5921,706664.26,420022.5,515451.06,653164.605,448497.3764,464718.72,499871.01,6155965.2978,676213.878,279796.0,343550.7,353657.22,206458.0,355951.1,469263.85,380363.335,5186502.89,538151.915,236923.0,409008.0,459135.1662,443136.085,327028.0,268855.0,388199.66,615628.2471,1045611.93,1986772.22,1806935.78,721878.4,707266.42,1301981.45,1506395.28,797233.26,1345133.01,1105092.49,1344434.63,978339.58,1592900.8388,1018244.43,428084.78,968074.7,554888.46,239061.91,6339614.8775,569263.175,477451.78,506321.8,308996.875,236190.0,366587.56,236293.5,384855.86,476051.73,556996.85,755685.11,456420.925,788390.265,908103.775,1733071.58,636197.08,751826.06,365179.5,215212.9,806193.746,383567.0665,430982.517,330206.73,172339.56,118295.52,351659.53,238751.7565,161294.5,609819.8488,462475.54,1088646.59,283824.25,572370.2,357248.81,399963.332,579065.92,765899.49,196787.71,1614215.922,3598981.62,658112.5674,389517.42,431174.24,355532.88,859246.67,828990.72,538791.9024,269614.49,586651.1678,872755.34,1834063.3936,1758487.3103,1059218.635,783418.646,1920013.945,497909.4458,857768.725,724326.344,11720029.6094,202076.01,374509.6112,396981.2199,289734.5,128871.31,353304.61,157541.25,260208.24,155503.75,587001.6915,199570.6373,294473.0,514577.24,481820.75,1681570.25,1086606.47,139435.0,1096073.47,326883.77,257263.0,139302.0,270988.3,824563.51,728032.0,246257.1,3130855.0,2265990.11,410093.7,1572251.93,743734.681,1400024.76,192238.9364,602421.9723,362684.29,331820.425,181592.0,224286.5,239695.7608,341897.78,353152.76,532971.58,384918.44,288495.0,614992.58,502376.145,1916350.21,367178.535,2446670.96,518961.725,460387.23,453783.7776,286738.04,353778.35,427783.75,356387.19,259423.99,405168.74,505968.21,513724.0,489369.6,893070.32,611395.09,560135.435,691040.15,743460.22,622614.72,653162.91,856381.01,704129.775,783265.0322,1494873.84,1314583.205,908945.8258,1346508.72,806881.86,1843527.47,1008011.2925,1293980.22,1723115.35,950275.41,1304282.33,2400434.86,3244354.78,1572176.19,2441531.93,3634743.06,2495326.745,3241744.6747,4422619.58,9561039.9185
2019-04-24,55809895.55,5208565.97,751950.19,562319.68,300342.7,411791.155,428273.13,256855.95,421672.12,191675.5,404430.4,374896.2934,201650.62,339988.0,606478.51,484986.28,507219.338,841217.2252,303633.12,360505.01,8389218.75,1150607.89,1248950.1025,1722118.67,106128.0,482299.67,192693.3398,1634100.93,227443.5392,145921.98,453846.82,253581.5,539224.24,737595.69,2810561.06,578045.5,190298.52,539014.21,497172.33,901059.89,1677153.4,332688.07,2262995.93,694299.9999,243857.2,63132.0,244307.1,263586.0,179172.0,115922.5,1098249.48,4109315.37,200795.22,604640.8978,188246.0,131232.5268,613637.32,328086.5,442519.94,264729.17,386415.82,280487.63,42338.0,333787.16,312440.0,393189.5,158972.5,137760.0,119125.63,232881.31,153343.65,294126.66,257124.9123,318884.875,652309.3,993338.23,276819.8,403612.575,345612.256,222651.301,349122.24,114553.15,522203.24,1696804.2616,2033564.075,828673.412,400839.35,465082.51,1160004.92,1167703.385,1173669.715,1014693.18,1114571.6303,990512.685,543649.6,534996.78,429525.4952,1388317.29,1723423.45,1226781.94,463999.4,224486.76,337716.5,205806.53,444084.357,553468.0,270651.3,1122412.01,779877.745,613802.85,1606058.815,1000794.58,372658.2,1037243.64,217827.33,545878.0,801207.85,876687.3,859667.009,390438.85,291169.1,169032.65,233006.25,447091.56,1248851.2926,380045.295,73259.92,421341.53,274516.5,150345.024,321870.48,169917.199,140228.1,820214.5065,484784.313,187042.27,435290.5,95017.0,141317.13,523638.77,154171.4,63335.0,404734.32,530442.69,407833.3198,203717.415,158412.0,138795.3629,74772.88,42247.0,50702.5,392256.04,417315.3,573338.03,479721.73,229307.2,346798.81,73899.0,211189.6,42236.0,191688.3116,326486.32,304878.91,306451.18,179668.485,243765.54,285061.0,161705.12,242737.5,422727.095,73884.0,634595.33,838152.2145,441787.23,306312.305,142552.31,52818.0,75191.44,288037.14,152935.93,804427.1424,379594.47,63317.15,196243.9712,278761.74,486572.59,2962755.74,110804.13,329075.18,1116906.58,124940.47,406816.95,378212.4204,135643.6,111784.3,257217.57,117333.24,52743.5,130802.6,69848.24,105524.65,225149.285,158270.0,93709.34,478897.046,180288.26,147811.0,149036.36,339299.76,887244.65,1650860.395,513453.96,138413.85,52816.0,42341.08,42226.5,355917.2,304841.88,30174.93,141921.79,382684.35,301172.8,110829.95,1162513.0,807431.88,641657.43,282010.9989,116967.942,240192.11,135545.8,224656.1,266632.19,52757.04,117955.2714,430048.0,34285.0,211499.25,991761.38,4281293.5,5124493.34,1569622.2703,231435.0,303753.06,215730.75,42095.0,222761.35,52560.5,187466.06,157596.5,278733.58,384755.2,779859.31,263946.5792,406756.6,73532.0,210012.71,5096379.795,122975.1,52547.0,372812.11,265082.8692,263049.68,362319.0,197629.156,331508.5676,651430.116,582468.144,291651.3408,157551.0,126958.0,499377.13,336160.0,220713.0,240358.4,264178.95,189381.0,378796.0,252533.0,329737.08,189529.0,336714.0,370193.0,55261.3625,261891.08,136692.0,366539.75,341242.24,138361.77,253704.14,115862.5,179600.94,353272.125,431369.0,158041.95,313918.53,210441.0,489514.4432,496460.642,223086.6,666221.6822,453231.43,238633.14,379515.82,372698.53,206577.632,269342.57,335109.5,198685.49,273137.9,252028.71,63009.0,517349.335,264911.88,477335.485,188902.82,482311.15,375860.38,305384.2,252114.42,336198.0,217465.75,264416.36,467081.99,189741.3885,309015.4204,115657.5,365166.7726,422832.8684,438519.26,524331.5933,819951.77,252172.05,248519.3,244138.1,2175797.84,697085.2828,74196.65,286761.445,338568.575,742952.77,310011.317,355702.25,425393.03,492662.915,895512.15,230388.0,477194.87,95328.6,248349.596,621759.74,489689.83,358736.6,261853.55,408484.44,331438.065,185280.715,259294.9745,533342.51,427918.653,410248.09,714784.175,671832.64,603242.88,552762.11,1207897.22,1238575.148,371323.64,296421.76,706678.07,457704.31,414360.02,462585.5538,1034382.1924,449392.0,721672.6,432382.33,1111577.94,1178787.97,754270.38,864101.975,1158540.26,1300179.55,1121413.7117,1149817.185,2670671.92,3327783.63,3669087.3108,4657073.25,5017641.38,10428309.9448
2019-04-25,2587559.44,148057.15,332400.89,520198.57,459187.86,233287.5,349448.54,455563.7199,540682.0,395147.9744,584418.95,573285.77,1221657.9234,1404236.974,962105.22,389657.78,114138.0,173235.2155,246717.9392,155599.0,62283.41,384721.22,292135.908,322079.75,260328.0124,638731.4,796485.165,423842.6,259551.0,218572.4,361608.3,394085.0,258995.32,93203.0,608481.76,297394.93,657259.0,145079.5,1327325.0,299822.0,455098.61,588699.5,938574.4,326488.33,216789.0,287588.795,195925.0,354436.32,471585.16,398445.57,144453.0,445139.7,351297.48,281615.6105,534393.6014,352236.5,466908.5698,190740.89,186405.5,444253.59,877050.84,185981.0,318974.42,165191.0,176960.75,353077.8,3444844.25,341500.98,278337.22,231431.41,414245.6,103441.0,248088.2,251481.12,2231133.1375,274217.5,156923.68,331340.0,155381.5,760077.51,221901.8148,495111.04,228129.5,336295.495,1130448.25,515610.0626,223996.319,175775.0,100258.5,136546.8142,239614.922,237488.0,175613.6,304220.5,331879.44,611562.56,1169090.04,2571941.6,495742.61,259163.4768,150605.4248,419435.02,301434.54,278286.4473,207695.0,292465.775,505488.265,373094.5,227265.06,166081.5,134943.0,259979.0,270875.4,972410.7,738243.0,592799.5,280583.0,270106.0,197434.9,270163.68,197305.5,719522.97,217632.0,1020464.0,736369.5,612044.069,467391.5,278518.9923,176758.0,1109134.95,438884.18,155917.0,359085.06,135029.0,265093.78,333831.82,176696.5,72748.0,478213.25,641366.3,486805.57,303385.33,83140.5,149432.58,831902.5,940042.8,1973313.17,668477.162,294454.7,441090.47,213212.44,322504.5,343458.0,479321.15,207918.0,187155.01,207883.0,186982.5,186922.0,125150.35,1184839.94,430252.2471,135030.0,327140.5,228478.0,387906.75,835149.52,321836.5,519141.0,83060.5,290563.5,1089945.1698,176453.5,207591.25,130864.47,97670.58,134925.0,124485.5,210381.72,171921.7043,310894.0,62180.5,217722.66,124363.0,207296.0,243582.925,190673.52,118305.585,321413.4,165897.0,289914.3,134841.0,248990.5,41480.0,311190.26,238523.0,186602.5,269588.0,203263.114,158933.68,196888.83,279620.0,176085.0,333961.0028,195275.12,238287.5,313531.375,155456.0,331635.0,296733.58,165849.0,321398.7,373303.16,348782.24,169673.33,389040.33,219554.0,453619.34,134704.5,93232.0,103596.0,361289.9,198512.9,278852.185,249076.92,456599.77,223960.78,254301.56,331331.5,145028.0,179196.0,435750.6784,155321.0,186415.0,196801.0,186459.0,227833.5,325670.15,246611.044,280992.04,238321.5,228764.532,128323.2012,248687.0,124362.0,323486.54,155519.98,155388.8,302386.25,224750.24,132575.77,259740.95,93258.0,170349.28,233027.255,20708.0,332674.04,194556.5449,1367798.36,879123.8828,188281.7475,196487.0,89120.953,116685.2885,238765.18,201259.98,905389.18,485553.95,247459.92,196168.5,495934.05,491216.78,902664.83,387986.34,298643.653,237394.5,330255.6,534786.13,390385.865,1014433.28,155123.45,405683.64,339842.2,795775.8977,388464.584,185796.99,103597.38,319236.8,278104.5,277273.896,333122.6097,176885.7119,370301.99,204472.98,257698.4,510079.15,1439379.25,271376.04,221066.07,822893.0,216178.0,749211.586,185952.04,193695.5,85004.5,396679.56,343337.405,246943.5,388162.09,606420.9562,2034626.4195,308067.0,393043.22,225953.0,921432.41,1100356.0675,510355.61,552181.35,723072.6,202209.4152,463062.5,332771.44,302389.26,463319.21,103039.73,260297.9,355924.9044,248550.14,380322.32,290624.566,306268.52,159811.82,460827.91,258456.52,470595.1952,108100.0,185498.32,246558.6,272827.6906,1089919.91,615097.17,322473.38,712428.163,533588.0,254909.7052,1041106.215,423297.19,742681.914,1085050.613,285807.12,384546.0,514998.735,384032.95,200195.59,718286.8,923220.64,498473.14,637507.22,821418.78,203797.95,1059910.07,476338.27,507726.6,361627.88,616956.0,441992.9,503525.42,498218.205,614529.91,230555.04,643335.9764,764072.9844,884121.58,983025.065,366298.03,1959892.41,693063.605,492931.9836,1563021.97,1015590.8,1475559.426,1105508.02,1039056.9,1494502.89,2280592.53,4532806.35,3798059.26,5323437.005,6485847.94,9843577.0996
2019-04-26,4540657.2,343417.933,237926.4,562078.44,572821.19,1641337.34,896504.36,1098765.41,640994.32,486425.985,1631096.13,1675672.3985,1559644.69,2884803.32,935564.505,2293676.411,108330.48,933479.495,963431.9674,768575.6,984417.04,1064376.21,681268.54,2603059.83,604761.36,221230.0,339056.0,321455.44,251215.0,520193.48,925639.53,2174761.58,503635.3,484872.1,430954.26,624647.11,765644.61,556117.054,660998.2,970480.76,827364.365,693311.2,1449695.23,1249188.685,659931.57,547256.748,250890.895,257796.65,328042.09,770867.3895,535382.8678,604213.85,1025654.767,860274.12,1253859.83,705955.13,400379.36,671803.69,394208.1,349456.11,712827.4199,545184.215,419281.4,899207.22,342450.2414,540240.01,559647.37,4028279.86,713365.46,473973.63,685824.95,480624.79,508722.158,1127368.4,1533991.31,690759.65,712855.31,443907.75,681036.0,435331.1708,465377.895,744828.3277,1043713.73,1143297.36,602085.51,1071305.41,1408467.07,1063769.9849,610787.3465,656736.0,883093.8621,829369.9875,506847.45,611414.26,634307.91,592832.52,831985.939,533181.1,546410.25,509311.49,603779.28,567789.9,901558.11,769378.5329,1420621.202,614349.3344,1189096.8606,1725884.8186,342840.28,723276.34,657634.24,1314997.985,1444383.97,892311.49,1260099.31,2109868.3,1207653.83,2163094.89,1208547.4363,1074284.006,981922.51,2865173.4964,815754.15,683520.98,458697.8,824751.96,577641.76,538018.8585,259846.05,369166.07,334065.38,637688.96,856183.49,500453.985,907881.85,490250.77,817210.985,739139.51,611065.06,1200768.11,808098.73,518775.5812,441226.38,432936.74,253766.495,385162.08,406528.215,732196.198,281534.1,371766.44,417759.4144,484846.5,301812.94,313770.54,635021.721,1024255.395,1604007.77,1790865.75,492009.6205,782768.89,792709.06,658768.63,696049.56,808906.39,472431.31,785544.0752,653144.09,872663.46,1120642.71,421009.02,907411.9836,622432.26,399035.505,481915.84,394362.65,465537.93,896516.21,244229.38,284161.29,431109.29,179766.32,500777.65,433690.2894,214506.85,459415.7951,318936.734,524584.6928,207892.78,408209.04,417147.88,349784.11,280529.18,366954.86,493827.18,569240.81,887136.216,1379028.338,346917.36,253956.97,686556.71,1055133.575,244141.0,718691.21,726036.21,458650.1,740879.75,1451819.63,768169.11,645284.12,828209.07,576105.07,442073.7406,531353.94,560055.07,982255.31,1212863.17,898642.96,191569.404,268073.775,2489216.68,332307.87,405215.06,2256147.56,2073382.9467,444254.72,194232.2413,370685.48,336220.6436,227199.72,667465.3396,661079.85,155871.0,376474.5645,278887.09,320648.3,344053.97,400274.7,307752.895,310418.9315,157002.78,609393.53,166677.3,1306227.778,778416.53,137569.42,457536.06,315013.19,169017.15,446020.98,165790.44,354040.3,112940.72,506614.44,238710.5624,226984.5,255564.2,204036.597,447445.94,77981.0,178329.5325,282836.4628,68199.0,205111.34,215095.32,199778.125,576168.645,183074.3199,240199.0,386289.1286,260164.95,614307.5375,165899.0,544844.24,347723.75,579029.82,254040.84,616412.2315,491615.355,485297.4,540101.93,574398.14,536674.97,590312.64,388820.205,978787.51,501282.9664,253723.32,87598.5,840213.0244,183592.38,371910.5,656200.3224,556326.6,556865.5,1047828.49,598946.42,783836.215,643401.11,1181048.965,1316709.47,1283326.155,676837.2014,966336.2,566150.3,1622696.69,331738.88,333469.08,894568.81,514135.55,1509221.914,492172.84,586468.23,49696.0,149333.68,258368.5,230766.91,196363.53,207315.88,178774.5375,1530082.835,414115.96,629733.995,683939.03,165303.801,534258.104,155992.0,494684.92,202623.84,341488.56,277520.94,456004.0,384353.37,799421.21,417780.04,327445.08,409015.16,688070.73,495391.91,415908.2,668645.99,576823.075,851615.9,326109.74,630887.27,611038.83,467600.86,485574.5,364246.5564,446924.58,1805003.79,905497.35,924267.53,713012.72,320160.66,1868287.59,873860.9,745375.698,894986.93,859865.02,697775.99,1519629.79,1846067.09,822051.52,522585.725,1051630.11,727321.221,1369744.9453,2381231.7,2865820.2472,1610073.5232,1014149.04,694089.9108,795467.7,597139.98,866156.52,2413737.91,1484901.22,3425271.3466,1200185.51,1292958.85,1592796.32,1804360.72,5191590.0,3600424.7603,1541954.0653,2696099.6435,3892683.75,2708740.27,2806468.2808,18566351.4137
2019-04-29,3657906.69,247414.0,385288.49,470951.48,850634.12,1126331.93,714049.56,1122271.975,1024355.75,989261.95,168439.49,371541.3,150498.56,147075.0,387029.09,205893.7,48995.0,460822.0,872719.5,548785.05,234921.5,530337.7086,549608.8973,107359.0,454921.74,377807.95,618534.8,394047.8856,599516.22,145861.0,542513.44,639408.0664,906339.62,393217.35,481846.6,312767.34,1003446.1,1617081.675,282809.29,623192.86,226431.73,476261.03,214794.2386,608022.9078,512215.92,2227115.9732,2303623.855,760876.3105,701620.86,1676828.85,639605.76,818589.9698,849867.65,459225.6,462434.17,602746.26,588243.52,786156.99,1683316.92,585631.055,1968739.98,489928.95,1659861.93,778212.6317,242294.38,354571.56,722188.607,505289.5,578642.3,704881.69,1779840.2738,329175.5448,526416.0625,375869.55,456479.78,842967.2,1137083.304,434430.75,930457.8,1750012.27,945894.3467,1177013.3775,696101.09,1988584.6248,742378.21,6377545.675,1441958.3065,1166545.4566,850500.61,1942166.0,1452208.31,366413.81,704440.38,590806.16,1091977.085,706039.33,475674.5495,683797.515,487316.27,408515.16,664088.55,375957.32,882282.77,1325668.6832,3924142.3732,481979.89,1051727.74,1064397.072,1627446.82,773180.78,1552123.93,1428555.835,779873.968,873584.435,2685442.725,1322086.18,1426817.75,500782.01,640309.36,527899.28,925214.95,2161736.39,405222.1,1045774.711,254094.93,176185.89,352044.69,1257930.5,525127.0,163859.34,302339.0,1417311.03,360439.69,780364.06,1144008.94,910523.45,1676869.5176,1163156.68,873984.2,1748067.778,1821400.84,374914.955,492461.09,597130.82,1585140.23,1132941.24,4672235.25,5939319.46,1554837.92,867541.5,224616.01,175391.5,104628.5,292838.59,401089.3014,536997.92,185478.41,270929.4246,267917.78,381058.06,322592.4,152090.4416,819477.35,1727390.9,408140.25,248966.56,90100.84,156169.45,418956.33,204980.0,1573506.38,445031.2634,583168.7,203948.71,313718.04,1165867.0,513190.26,238999.55,195098.6,246278.54,1760053.13,314117.21,1136633.72,1337324.875,916182.0,1120826.785,1414533.8284,1052449.9255,406122.68,345308.09,292785.5,766956.449,413169.56,378901.5,430318.87,622428.92,2474542.931,675218.16,224997.46,289848.9,471584.181,1840208.15,1074707.04,497155.86,195420.15,175775.0,234157.0,78078.0,366504.42,429193.09,107372.0,417439.515,202691.8096,614104.05,427915.16,224310.44,522498.71,165851.45,263546.0,185497.5,1011671.34,627804.66,551125.1896,194024.04,87866.5,224635.0,192429.2,120058.675,110982.0625,25763.76,571755.72,415752.195,320465.55,58592.0,12594.27,113412.0,418656.15,129011.5176,195082.0,232524.14,264050.98,187795.5875,58548.0,341584.5,117090.5,50253.05,301418.4,19501.0,328507.39,468039.5,282726.05,348050.9132,641928.114,224373.0,29269.5,322014.5,478336.505,370740.17,303975.875,302784.5,224671.0,483393.07,58599.0,78127.5,241478.24,332105.55,844385.29,559244.97,625394.18,1189060.75,412620.12,272015.9142,511619.6952,43952.5,156253.0,68318.0,87831.0,187964.9675,217596.2228,262818.0711,251895.6,68306.0,339583.66,214563.5,76987.5908,70732.0,58518.0,117328.62,534941.04,359544.99,125783.779,371376.42,278666.1722,180459.0,107260.0,126774.25,155954.5,2101226.57,58500.0,209613.0,206721.37,99184.239,341388.12,185319.0,48750.0,252006.565,127738.8,19488.0,295037.61,352327.87,32020.28,161864.42,593958.1528,407801.55,359449.4,450606.43,282337.71,149250.38,146001.5,344031.97,183658.97,69896.6834,369166.29,435160.4,234169.89,543284.5,301700.08,430310.238,261657.6,366302.631,714302.81,262290.65,135798.5,155261.0,288610.4,388368.08,197420.34,286906.86,224475.49,172089.38,70283.42,612452.47,214674.72,671491.1172,360354.4119,220600.26,230201.4245,463141.045,174869.93,281850.38,242507.5,358049.08,233694.09,674507.09,287243.61,654565.19,227307.7295,816390.854,467431.99,171704.805,329874.5,538991.865,700809.83,301396.24,985340.364,608657.11,545979.91,126306.5,652643.315,367085.32,592181.235,966246.46,723684.22,350663.09,670018.2,1104076.19,1435173.66,1335785.8475,615030.97,474589.03,1095874.1394,1089541.825,1352661.725,1240580.48,1652179.59,2129679.79,1268341.84,1978930.425,1658529.11,10801116.01
2019-04-30,3540222.99,379237.05,577629.015,1443447.19,364480.8432,395045.8,68309.0,75121.71,465111.95,223951.03,699344.26,349198.69,709095.44,354338.65,243066.78,220964.212,262493.584,1124795.0,1211704.25,1070964.995,767527.649,223544.3316,169988.52,321709.0,208897.34,580499.75,386861.64,599240.5,431900.9069,181581.936,1310593.37,539699.7,487474.9,1575704.02,731311.34,833062.905,382731.04,856356.012,460905.05,224456.945,375254.1152,1044597.9,356210.5,286279.46,467077.2672,1757014.5144,2514509.032,1420648.26,3526119.01,3450397.65,4269977.795,895463.342,2106842.254,2005084.12,2800836.17,1018259.6,291048.654,345318.5,86296.56,273281.0,233024.18,327064.13,286913.57,522205.69,1015139.775,328646.97,567549.88,648511.912,332613.4,291677.4376,86557.13,232813.76,342826.06,421997.02,400114.73,944042.66,874618.57,1763325.72,1411015.14,974254.535,723395.37,256854.64,418841.2,870884.7051,220588.8,999907.5,220065.01,230974.3,421555.54,318928.81,987327.7411,347750.385,154701.8,1043586.07,407443.55,601979.45,655790.405,305798.02,1667074.355,1090479.75,1096587.84,467969.95,868700.215,880505.97,1250668.45,630470.45,716317.73,775718.66,379311.82,630897.2,291689.32,414863.4558,612958.9433,814617.7072,771383.9382,453853.7,401734.0,597013.89,737957.315,980829.03,1651112.3377,538675.92,479690.25,411261.68,478200.84,211029.97,118933.12,535149.9,423080.9682,211539.5,463743.5932,644031.895,510043.54,625080.29,619914.74,1293979.59,3336833.43,422366.0099,443093.64,1575712.72,1334793.2,540270.255,287727.5,201169.6,263149.4,1923371.355,827676.8,173875.54,1080400.29,176530.9,937760.0,491129.34,76536.0,216099.46,19136.0,465213.2,206591.6,308892.35,256465.7727,38261.5,561801.04,220197.21,246015.16,182435.12,422612.775,105299.1,863823.495,708714.1,261257.0667,310546.6,652845.745,282307.08,85959.0,383764.035,2158820.115,346601.9645,96385.8,229153.0,78777.25,645168.89,401812.52,185562.69,50576.1556,401110.0,367874.42,237124.7492,233026.2,47750.81,326788.6,66853.6,336687.0,305570.5,269122.96,210025.0,142623.0116,432666.16,210086.0,374786.61,168635.75,19089.0,38177.0,209927.61,1584912.1,388864.44,95421.0,195562.56,30636.345,365584.307,87854.6,235269.95,361793.64,209253.57,286546.43,325097.0,234405.08,231053.536,426967.4993,155986.0,218682.63,76558.0,926932.04,316123.524,220007.5,306063.0,1739260.78,315356.0,204306.25,208010.58,95554.95,190958.0,133668.0,151951.15,248197.5,200392.0,269930.73,305124.5,208492.01,392611.93,247746.6,858648.07,1563915.5,351271.2024,145411.7692,506430.6,169919.333,224050.18,171616.5,388221.81,132272.9,302569.4501,591753.107,309399.8708,347564.6096,180931.8,193190.3,207689.62,247470.16,378891.87,218255.67,371583.94,200527.875,319191.885,19038.0,91000.14,228741.51,267578.8,293090.29,472364.32,76062.5,346634.61,100802.7,299622.74,1154799.9263,48095.3,85522.24,355027.54,227145.09,335594.58,240107.21,95064.5,549643.544,226166.11,275797.0,132462.3,758429.1,479763.14,416967.17,2652990.86,205027.405,76037.5,274537.39,939346.58,271051.0,661053.0408,741722.15,1609488.3793,451773.575,161853.0,247656.72,171442.66,400036.21,376768.61,437669.0,148104.64,371294.54,209478.59,342918.07,336272.349,9524.0,726695.26,248370.32,821693.6,1273675.46,821759.64,213332.1165,291463.82,276117.5,285779.5,1572591.0,1773322.816,1142502.397,520520.52,508061.0,288799.374,372798.8,1379457.49,163308.051,2449011.2,205416.41,277205.0,842212.4,928988.9,725124.97,219955.0,468545.36,672232.5859,516538.15,345359.55,558379.69,535656.05,133361.01,551048.74,1659191.95,536598.29,609670.5058,197185.1,1714403.58,2080926.31,877321.8904,854005.81,670121.225,354455.12,302074.75,729789.84,376553.77,1601580.88,1316867.595,506080.86,480482.615,1335355.73,377767.7,553147.032,642525.848,1622197.66,374051.0,1210131.12,1331887.014,549618.65,459078.0,795042.6788,821975.61,1522635.57,714922.5,685510.35,902407.6116,747809.445,1109066.82,779294.169,1572932.02,775063.115,924125.3176,788813.98,559139.03,848072.98,1184516.415,2175535.9,2931067.18,2210953.7202,1894756.32,13724306.0776
2019-05-01,3579890.34,405707.79,134768.765,1180049.166,849907.758,714363.78,641712.9541,757031.33,498039.5,831331.64,976718.02,1261891.84,4806689.65,598355.56,1901838.42,5534482.45,1542362.5,1417690.55,1136159.6793,965419.37,3501812.3143,1154629.0505,548223.735,115702.87,240578.6744,361046.32,418273.5,171422.5,212652.9696,173689.048,1930915.7158,808942.4624,525838.15,963332.13,397992.528,334600.85,673218.82,501992.9,1469599.9,948557.818,821854.7978,246794.15,440989.74,590835.56,523015.5,834414.9431,3015060.47,3950700.73,672498.92,926509.445,603177.4678,1530717.54,1642742.95,555876.8568,829507.94,145274.25,1136463.9832,1244134.35,791200.2375,1180995.54,1389681.69,873998.59,529823.91,278841.55,262448.64,233840.045,209201.72,332132.5,135913.865,210771.775,1644294.97,488967.4736,511681.94,205235.34,300052.7106,323034.85,440274.27,376419.2,599542.3574,113664.0,463631.0,506726.35,204273.325,818132.898,1058898.72,545864.4512,517165.394,528937.79,1479218.9824,1184878.475,1081506.3,743784.27,1566757.8014,2364437.785,2830625.86,1040801.045,1860416.7,941978.8907,1614422.58,741812.115,1366035.41,419251.48,570336.26,372059.55,3567601.675,1161115.88,844431.01,499051.79,1166574.14,90626.6,782647.49,575366.43,417675.85,370335.665,282945.4,2075091.5239,930537.0391,301697.95,1622400.46,689845.3,734393.98,752803.56,653520.145,258917.2,424570.87,688884.08,4124654.155,721213.748,1732898.4521,841728.14,1528400.9928,3950536.6192,1375722.29,1637335.1284,989081.75,3402823.39,1218749.1904,1237681.158,4264780.69,3012060.17,687222.11,3353289.87,961685.24,1838313.18,675689.78,347992.0,1264978.71,3879407.02,376582.9,2548323.8,1063563.95,311976.0,1842354.7256,274453.65,150437.39,342902.27,609502.04,708345.9484,525606.2,609470.08,290614.0,1156726.41,1378934.68,529198.5,327448.5,630508.715,140425.16,176321.77,314192.5,491799.182,1267265.75,987359.47,350798.48,279075.834,569344.565,301260.76,331176.31,433541.4,318375.95,468688.7,131021.6,134272.4,355687.12,850373.965,695646.76,533660.91,439342.55,956345.2,112070.5,183853.15,607369.34,245974.31,405481.885,611577.708,563114.105,276231.695,862418.43,1118281.88,2429152.997,981984.9,998305.67,1176399.18,1653163.037,1546700.93,2923517.88,1974456.32,1486381.25,2000984.22,413916.84,464782.9299,880913.79,411244.68,541524.615,815785.2857,486195.0,130815.99,586948.98,432472.75,1523621.69,684561.9,300923.99,632819.33,915279.9476,177363.0,147830.24,365563.73,192278.04,233682.45,407467.54,285079.59,380922.11,1447667.92,1129647.87,684412.89,158736.0,112071.56,445829.5975,5027534.19,521918.5354,180719.612,976931.5806,149165.0,2853089.0,621076.574,177378.82,366124.3378,336180.5,2337683.68,1119693.51,548949.0675,327368.0,415484.2804,362891.87,318683.05,692240.8,387221.3889,238603.41,1391695.293,280406.0,233278.9864,588777.12,229775.8665,185633.747,342732.8335,112606.6396,56116.64,336860.55,308567.5,91249.24,428190.94,549335.125,168257.16,267875.4199,1235135.6012,552238.28,613082.38,178364.8936,1024355.24,582101.0,178891.55,406736.0469,947444.9815,549275.2968,93595.0,330420.4138,65513.0,547823.55,300563.7006,430306.44,262812.72,558695.9738,620244.3206,900944.895,257830.1,254212.97,390335.13,2792871.0,929931.9644,526788.7342,1191572.18,1587016.055,2330746.0,2021791.37,628400.39,509454.28,438342.48,196194.5,280167.0,290551.82,793217.8405,627087.62,544386.69,534298.45,579300.84,529712.245,377338.7936,288861.25,516821.6622,483457.2562,571383.294,732509.91,319606.3577,864719.19,314198.07,318112.2384,518018.19,343721.43,816500.682,442285.8299,213545.88,466298.85,316480.595,334308.9,450477.8575,541447.575,507321.46,566619.8445,268977.04,560995.69,330510.775,273322.57,202162.35,420518.552,562250.91,409126.7029,562082.84,395555.57,696890.631,260101.775,476400.49,237070.755,531791.924,498026.3388,442284.62,753432.4851,375475.49,1183946.537,3011099.41,1508183.7732,804348.2592,687272.475,811135.7571,959323.7568,862082.552,464272.08,800056.503,1234179.385,899080.5466,733287.28,980260.355,1003406.492,2123500.115,934048.8266,705041.905,717038.62,1537737.085,1741709.155,1555043.78,1334840.2105,950219.71,3447989.92,1490781.0465,1289672.3738,2132335.3561,2007474.7185,2833868.97,1969728.3546,2717793.54,3724013.55,13969300.0738
2019-05-02,4535741.41,673515.9299,1151122.42,233295.98,1158821.3775,476552.15,715762.69,380404.685,405716.4,1102797.264,978960.36,530370.34,631987.13,1005306.85,541008.62,432148.05,700107.52,393832.4464,510603.3275,615571.4494,700361.625,1304185.335,917899.3973,291389.0951,8098475.8268,1207072.5244,788349.0,3127319.46,588641.0,292648.228,911468.76,809645.0784,1279826.196,624089.351,1315073.7302,403441.0,1204271.3632,522028.22,491326.14,528617.8578,717423.885,816607.73,1220467.18,690925.425,688409.55,832116.74,691577.62,260549.572,418767.5,968031.77,2139533.5317,436453.975,559867.9,894192.71,816125.4002,446773.43,487003.41,688699.834,366889.9076,639788.5,503976.94,316118.5,815498.4334,997491.36,423247.71,531949.4,768195.2,744348.655,2988279.295,1007095.985,522145.8485,237110.5,254513.5175,331376.3937,333758.972,373515.03,603327.6,600761.333,387469.1,478738.26,320470.15,340075.26,294202.98,315633.88,238520.98,441877.34,606942.9665,538963.65,1150792.846,390118.98,1260043.4781,909022.29,796029.9005,186557.71,753370.03,464719.6746,1787783.7229,595094.93,815294.925,1096233.57,909682.04,578422.56,1427906.3,1055975.138,573869.0,471437.72,514955.66,443664.615,586842.9669,436498.9,2112330.4098,606794.3,633413.9128,724943.331,498197.4525,672548.73,1515034.87,918660.74,778253.45,463862.3,1044563.42,596207.265,1519360.565,937516.1501,253012.98,1696135.86,654762.39,662875.56,313432.08,288185.15,627356.86,242814.76,923835.445,352244.53,2770194.18,526173.64,441146.985,281175.972,490648.63,830361.0585,283144.96,719717.5986,1377824.191,361243.03,762439.206,606566.1332,313973.315,641695.29,1154245.89,648496.5276,303082.127,205995.91,209778.32,382728.8,161257.0,376126.7,424712.51,278069.0226,615156.32,1012392.88,1321513.8,556356.596,1227051.345,3002273.24,1718400.402,241995.66,716873.83,575552.573,206112.93,574289.2504,588151.86,474577.5,992065.49,1465816.65,1649968.67,2179364.17,998557.44,358392.14,1491280.2322,828625.03,1937618.9764,682436.5,911640.8148,961594.31,314360.6,556598.34,397705.3,361708.87,400331.7,641104.13,287334.0,374969.9776,374755.13,565130.94,408612.74,405387.3388,741294.6168,195049.25,688779.56,855711.316,867075.96,1938088.29,1354071.18,733936.79,1912906.1,324988.6,762152.22,239552.2868,143404.86,1025878.56,824559.6,143382.0,257805.26,753027.88,590170.9,318453.99,161091.5,321944.41,214725.02,232625.25,652420.56,579825.75,257574.9968,232941.85,1024388.3654,150573.568,266558.6,304063.4312,282565.47,379186.27,515399.58,607707.83,584117.54,694031.63,323915.5,384134.234,296236.25,608450.5787,187079.3258,361165.8092,255586.17,1272253.44,463935.32,474076.759,129258.58,147072.62,449309.57,181870.56,215645.0,394391.6,405547.65,315030.97,502075.531,616251.89,161866.102,357511.32,419543.22,340128.11,365634.3,343693.82,233242.0,675564.2884,310252.3,134954.92,653226.11,321049.5,201931.5,116679.0,1076568.12,315704.45,179603.56,453828.8,158972.61,258742.139,161614.1,400254.52,338650.5426,208444.4694,460130.0995,752602.5888,228402.34,481714.68,305229.99,380825.0135,2125278.9361,1843390.14,230942.1,1166294.0,977611.35,452903.6,511380.27,1289486.03,231506.04,351907.38,597015.9712,1134886.898,1117110.72,1004905.1,647643.145,1147389.368,170385.76,1873722.09,279348.5,1245579.5,519626.78,427648.17,290807.92,358468.37,300019.9601,208191.962,174994.975,977572.8836,750448.0645,1843744.35,710232.0258,653223.7776,3076173.3917,717649.7144,504041.7675,179805.41,366668.1584,682159.7468,572846.79,145731.44,684052.824,461160.0271,899385.793,485436.125,580847.095,640365.75,938975.4606,271081.53,692506.01,375942.7,400264.3,403492.76,535797.65,1315857.085,687002.61,995846.3925,252497.95,568323.7045,583178.83,593074.3,616101.0798,877322.1547,664350.91,682919.97,718845.84,814471.05,625137.6882,836390.212,548382.41,494921.385,420596.275,557695.01,608743.28,605171.45,1011904.075,909469.66,577081.14,751286.725,1084208.765,1353573.54,1221146.16,1415715.73,1102095.845,1193663.0447,1346400.3,1199672.105,1101570.5204,1244158.655,1566564.4959,1052995.415,1093725.4245,1733218.33,1909741.29,1886609.6247,1585093.24,1902449.666,2158059.02,2369254.205,2309836.22,1501386.38,3673979.495,3678212.38,2475403.13,4282876.77,4426947.4698,10545718.7294
2019-05-03,8212702.764,4232122.747,1296586.855,2469809.35,2230632.83,5109919.97,5658916.5,2383885.42,1029908.63,1105986.1,1226993.06,2308425.76,524359.48,752203.87,1738385.08,1711530.45,1368922.1216,1229379.73,2690923.242,2386922.11,612460.38,1099361.52,6146633.49,1309324.8554,827981.8,1243002.78,828010.726,263715.69,682168.85,1264418.78,3055627.95,563953.66,2449038.34,2087480.38,1736969.42,2036568.97,2174494.8,1128897.8345,888781.49,2085561.595,497906.2454,911239.39,849541.1402,1970443.72,976308.56,916311.4022,580137.05,1487926.905,1369796.145,6317231.25,2485001.195,581578.0,1110057.14,1170432.8,1403759.04,2366672.07,1881108.34,3415060.868,4109139.785,2245910.2,3934547.52,2322633.5968,1176285.6,2087902.02,1846969.01,5650876.535,2129436.95,895131.8335,2590977.21,888171.9,1091057.96,3245876.4601,3480862.83,1842133.75,785281.932,1828333.8898,2949032.45,1354014.98,875123.49,1702879.45,4419646.36,2665962.88,1640755.419,841933.245,1169246.465,1352092.82,679862.0229,2318749.6,2111117.965,773789.015,1831870.865,1480080.43,1568991.23,1899523.58,602897.36,783947.1181,1169202.445,508496.97,1210580.3042,948649.505,1404601.09,1547823.44,2189699.42,3102298.7,1050922.17,3787837.98,1229387.19,2165845.34,1108996.13,1145743.52,808135.96,424244.29,577521.96,657335.1,900061.3978,836881.83,557227.56,469862.468,465865.705,357373.405,832751.625,398969.36,373296.6,616530.18,1009711.6522,420375.26,185546.0,875320.3602,194854.0,447523.5,1104944.8948,319033.42,902784.54,353972.105,378642.91,617216.655,966959.72,1092628.125,628762.68,630685.138,491071.32,285073.34,453731.19,492342.76,670792.8,141966.28,301309.17,369787.3,442178.95,620413.82,467955.41,289855.86,827904.48,470752.845,259774.4134,621617.29,260068.0,290631.445,498014.61,195054.58,235609.98,234638.13,649732.5,467194.6704,370749.23,963131.345,243215.775,1020711.5491,465417.58,357829.71,285665.13,305598.92,401851.1596,439287.2248,497069.015,455299.95,403760.4,607883.0,419297.7,450547.0352,788731.119,371500.48,340772.51,761795.2687,377955.95,767085.09,408140.0,390267.485,228899.455,272502.2184,393160.705,351324.63,252215.78,493050.2145,120943.0,515402.77,453901.76,362357.475,520378.82,36275.033,267041.84,689345.57,878163.609,320307.065,1231499.435,625327.24,2086041.87,261920.36,279516.575,478985.185,38587.74,482933.38,281935.61,587723.645,296674.5,197166.92,331778.0328,390978.582,1759512.0106,423304.6725,321605.52,156629.02,464818.965,579672.19,625787.38,635920.52,798779.885,1092743.98,1089923.17,620793.24,608932.96,582181.76,477850.725,287401.53,107296.96,1888607.03,1411436.73,1610207.88,222248.5,525284.48,518858.4,501226.8,796509.25,759301.495,426122.8,304508.07,909012.41,573317.44,241450.48,239105.605,322478.62,355360.9,251319.44,580926.15,519728.0546,285421.4,239534.8166,736259.77,301615.8606,3158308.515,1435711.33,228601.675,184453.29,241612.68,805553.58,512219.11,900746.1272,392970.38,580761.39,387181.6089,318464.8,404241.77,226974.595,597196.45,470941.975,274693.185,756904.36,562112.1797,425653.995,726464.19,440375.89,342793.6,644863.081,972570.206,413750.31,811406.7475,410146.14,502784.51,595226.51,100145.445,369194.14,322775.5,1323748.117,508154.0395,197634.21,902739.72,423927.75,468426.025,369102.18,353336.46,428829.0,160064.948,500547.981,188615.88,498114.465,248190.1,586578.45,464490.62,219942.32,274347.72,371014.24,712736.675,441671.19,325989.3,467771.0,341706.71,1295039.345,456935.9,506541.834,514391.41,240700.515,342819.66,576724.8,979099.965,244021.575,831857.69,474284.86,1211833.685,303495.5,199727.6903,431471.65,277955.14,474451.26,563186.185,481924.2391,145555.09,534837.065,777596.075,176480.975,412779.46,627819.414,702608.81,192712.44,174905.5458,1071797.6187,413823.95,594898.0,367709.95,554798.89,566298.83,737126.7062,530122.12,495089.2,767220.42,232906.19,722738.905,190202.3478,973139.6847,1287384.93,514113.59,1186436.31,621444.5593,1544827.7144,704792.31,982642.563,1074100.975,841889.03,1270580.2246,1260525.15,1454386.07,1980788.705,442649.325,1735730.97,1269562.03,851353.51,2749155.48,3620458.5556,1399426.23,1394741.33,2001957.625,1683998.75,1654034.315,2176222.6584,2179860.855,2385270.05,4432012.74,3392231.6351,4655590.105,5280428.6786,21306973.7109
2019-05-06,3958046.6954,272420.434,548819.72,482122.76,345174.3014,813403.4,622423.5,225754.26,458416.3516,545225.54,760658.51,416922.0,298028.07,448306.05,324201.66,319102.16,369101.1,541284.28,306362.185,678739.57,567857.6732,766716.8,597389.695,896007.35,438212.5,872616.6584,898853.49,376362.35,892922.615,419580.64,489751.57,435404.5,126874.5,763135.7781,453028.4,208684.5,477975.87,768804.692,970913.045,832306.765,515852.504,374121.89,310763.54,1540987.4698,251951.62,1938007.2021,383302.021,229074.6,338384.5,253904.0,385959.63,397587.51,306088.75,419419.105,583292.1,285638.0,328549.5,509863.62,319902.9,145795.5,336511.95,227235.51,256994.64,382851.2,238156.29,504814.2435,54429.5,263254.15,427288.5,99988.25,423698.98,72806.5,132303.04,508655.0,90925.35,247085.97,175166.925,366574.4307,800484.945,533408.64,467234.525,244711.25,591921.75,915887.1623,145013.5,741116.1405,319804.28,457567.455,281896.0,217860.1,347573.58,963898.4122,27245.0,259244.232,522907.57,236833.64,99601.6,429312.87,490256.35,655030.67,196538.07,373001.28,295400.42,121739.7508,328766.562,269851.34,233920.47,376524.85,151141.885,327113.7789,145800.3,235730.51,472455.358,257095.595,163621.5,196553.09,200088.72,577443.5,116028.7075,151661.4,2209592.48,427599.98,205132.51,406095.64,316013.645,91699.9,227109.84,356050.68,145701.5,216761.06,333357.62,240932.9,211618.813,210284.644,400239.0,234897.0,200594.5,319666.0031,368690.2,232932.18,326657.68,363709.86,320624.037,154552.0,289211.88,242380.92,304834.5,286949.4,411543.97,281155.38,104132.5,235446.0,226635.02,180945.0,384806.5896,128035.0995,181111.53,1103348.06,256017.5737,173739.054,155209.04,106342.91,163237.5,172320.4,181377.0,136112.5,254153.0,308767.0,163407.9,199822.5,136370.49,196500.354,316172.65,83701.2,379933.8084,272537.7263,172375.7,321947.5,181773.5,190856.5,483552.325,267601.23,88358.8775,249225.5,36230.0,566374.9,166372.32,391722.0852,117253.748,380542.14,169459.9,81596.0,81663.0,272377.63,99766.0,320795.668,238207.35,63488.5,280791.8882,195362.1325,244689.3,568685.0,401592.0,2899021.59,926369.395,508058.41,415709.65,389825.89,108946.5,194012.94,241275.615,107530.8926,448337.87,101020.91,236032.995,246759.94,206811.445,181384.1428,332949.4655,531721.175,595020.13,57081.3,126985.61,201564.555,213497.175,312373.43,237325.8386,343906.0665,270585.7,73122.875,226716.13,118384.33,64499.9,137563.835,194742.3,210733.96,230793.05,419589.27,342888.501,337011.42,392983.235,253846.53,136354.5,417960.13,369710.615,199973.0,97255.3,142006.04,218144.0,377040.0734,254071.36,154542.72,320432.778,513708.09,628417.2208,318468.97,333334.9325,318841.89,278701.49,82177.0,296739.86,416847.76,118793.5,420312.6194,515019.765,267003.38,504178.68,166276.79,364987.3,305123.11,18331.19,201714.515,340363.81,485648.252,55177.45,354681.715,290351.155,243974.51,427048.1458,586770.095,493385.36,230815.65,274022.08,611323.61,582400.9605,273610.0,328145.16,494885.9251,203994.89,326740.75,225892.2685,295128.56,407064.801,202201.3684,344824.55,237345.56,180643.345,465340.6,309455.18,493180.245,328762.525,382373.97,200806.5,1560928.425,724145.77,782046.521,1652426.3,196620.18,155029.5,418219.3,364565.536,229579.1552,371189.9355,131913.9,565526.05,246918.61,524719.0706,213032.1,445935.17,314316.045,531357.983,523815.074,192398.36,366404.0,347760.78,425623.9375,1240872.5407,311605.5,450562.1,269006.7809,350088.44,641379.5002,328274.632,262455.4042,1091812.93,620806.19,261563.85,587951.36,571179.18,293841.215,164957.0,906014.645,529679.3192,546837.57,566106.16,569599.239,451579.46,556260.405,754644.08,422385.2,291733.115,658629.47,265844.0,402229.08,388524.92,920445.536,863933.6,394758.5,1138409.7209,707901.005,1223783.8,709860.68,824523.99,1040869.985,850552.35,640358.62,1199505.605,2177235.8741,1415771.809,880345.04,910967.6244,1588827.275,2023181.505,1125143.99,1068736.75,1515326.4978,1097583.915,1327068.6,1271892.67,1156664.33,1343691.39,1507580.2,1816470.115,1801566.64,2236240.1,2140078.025,3178213.94,2680909.1878,3701204.2082,11884247.81
2019-05-07,4752750.84,622199.7125,1181771.77,406115.425,1249485.825,745359.78,1025249.0,657040.28,1068854.1825,335598.44,289703.0,2191584.565,1033074.53,363907.76,1004445.83,199210.98,881535.74,1812847.205,338280.925,3473015.9795,2519689.05,592511.2582,505112.42,181162.1,361680.7,485971.82,344318.5411,509810.11,832495.53,548797.3163,1570973.99,501281.4,855877.822,969991.405,712091.414,432906.13,448116.6715,926228.4,295045.36,1899725.921,597969.14,839288.33,378618.07,666179.85,786402.204,1360391.79,1032878.4,494735.0,1212623.895,898175.12,1280840.4201,809665.13,1249125.82,1188882.841,1258642.8025,1531697.88,545392.24,803640.996,182640.3,559573.3125,4157782.23,2827209.888,713239.1675,480743.41,3766294.2475,774681.5,293069.0634,1221949.575,1819643.17,1316591.4575,3511695.215,500458.14,376058.1,405999.5048,78270.51,284026.75,300290.88,332361.94,521879.78,924201.38,1088226.296,905870.425,701144.492,671566.28,1305196.85,284109.45,1132422.15,210143.5786,392633.035,101895.4,1051068.81,307972.38,235320.52,2508490.205,452975.36,1244825.52,995980.695,1208732.634,733040.42,1160963.475,823256.23,239242.39,354625.56,884338.63,127010.0,146055.1,544921.93,440736.62,335724.8513,461098.9914,763532.0184,505285.14,391088.25,1781569.37,787749.355,2138398.9,523704.015,113412.77,799646.43,874332.115,356435.7469,837963.8912,246048.0,1211083.76,100008.5,72635.0,429029.25,883375.19,1902810.6,2186545.495,465475.4,447718.897,200620.65,230843.88,538190.4,238072.5,875260.4175,370137.12,82809.845,453256.685,668754.9958,315817.45,353745.4372,347908.98,369615.77,436772.1658,542666.93,1202249.22,398771.65,861466.795,1490893.26,193637.2,1980194.76,725619.6461,1311371.465,584004.64,1156102.27,101716.2,118054.5,201554.5164,207184.65,99917.0,126907.01,99881.0,221791.82,298536.78,174822.54,99819.0,59177.04,409811.377,99850.0,36293.5,342972.44,188724.62,118625.3338,81679.5,449125.02,96885.6,218793.1,109147.38,213947.66,248296.2465,227392.5,472047.7824,158288.94,389205.84,247054.48,290916.5,319220.9,438665.32,221764.22,595176.528,294190.6204,389186.76,190862.5,314536.28,163669.3175,73833.28,140016.954,571152.5598,190936.0,520947.61,191071.0,155328.7395,233332.6888,323396.895,502038.5926,126885.0,481343.87,1247686.845,409760.34,349215.9573,264947.62,983336.4,862369.5799,923845.96,1875926.98,1131550.35,521609.325,406942.95,254746.1706,339160.24,624684.3033,858226.5837,497828.48,498904.1744,135798.5,742601.35,436839.83,388276.585,427573.9,234895.5,157980.74,189736.7,1961459.4,707335.48,77607.1,45207.0,358871.445,135561.0,2721277.03,733855.76,743809.0,553819.44,615663.35,653839.77,1731532.45,765955.5272,724443.014,138264.2,552021.468,1814454.51,688549.176,275620.07,137171.5,109221.6,145321.5,886148.0264,162712.4,799869.265,263862.21,405332.08,269557.242,446071.45,199696.98,105012.396,576854.4656,90585.0,210182.682,352054.78,598144.21,290629.75,193395.652,207717.87,509068.0,177832.8,456561.55,292050.83,390307.5,154314.5,208793.5,506029.837,317878.5325,889689.075,974249.955,457257.475,383031.995,408663.05,893566.1,281186.0,591835.64,451702.3,804841.1,767770.05,1215093.35,1641775.4099,137412.36,761983.6,1034200.15,805779.71,427776.23,708246.9604,180884.75,350972.75,824588.09,935119.71,823441.8302,884172.05,436703.6495,131053.95,490105.29,361952.0175,541825.49,222881.4212,1170532.15,658314.69,305185.842,235675.5,346062.9,531508.18,306361.2,113376.825,244348.3495,615988.2,245456.81,255018.1922,282100.4,267714.85,192478.754,370344.4268,438630.515,161590.9675,643337.4995,808221.4,321773.49,360074.03,517382.6641,495133.8,301626.29,280118.0,552395.87,416307.92,602257.55,729047.82,919216.6057,724770.5585,909849.35,1485978.7919,710844.75,743236.5114,635281.67,645588.52,932626.84,334056.24,541805.52,1862355.27,781547.8139,445144.785,660499.83,473238.24,1075627.31,1343003.7535,606362.166,1243537.21,1793234.14,1001701.56,1240366.67,3661366.37,969037.9,872839.5,1604675.545,711356.18,1247862.81,1115547.729,960808.34,1041881.93,907252.155,1233708.85,645219.02,1230139.08,1175613.837,1475528.81,1318776.31,1384846.1,2102608.86,2116888.44,1515952.105,2590477.11,2170776.405,4722502.876
2019-05-08,3157792.28,233807.07,348424.846,309777.16,296044.18,1296941.82,818351.04,519265.9598,488504.1675,416874.1,562121.82,1459368.88,834978.5034,1414062.288,227618.16,828963.44,312415.0125,2191197.3815,1684493.46,1310557.36,1141514.07,374210.81,1546142.38,867784.22,642067.84,571486.13,608085.995,539977.0,419878.49,547788.3162,529851.3,220216.51,1401169.825,839873.376,400414.33,328131.6,689580.74,334465.56,669609.1706,1855249.04,553153.24,295162.08,836382.26,235430.625,548389.56,149511.47,392803.03,629155.1995,411642.94,413280.29,845170.325,1431376.9,527276.945,178851.66,994023.3,691333.0,792114.35,318968.13,336246.63,162142.8,975962.49,643375.02,1428016.59,1546235.81,702415.71,1038756.88,1111790.26,564241.42,378110.55,584996.38,592141.32,213597.37,616066.73,929324.46,1513783.58,191518.8,768135.09,911115.81,3238432.405,799211.84,1525824.5,201318.69,557415.81,300959.66,700900.35,974878.12,635110.2126,921017.5525,914916.295,1641259.8,1096330.0,604296.49,718891.58,1597226.735,366152.0512,1139707.625,807989.8025,325306.66,406273.69,463702.53,649904.785,338712.3356,603422.77,710375.335,843303.21,2805034.88,5443323.48,262480.87,645102.4,273756.03,332400.26,544368.39,186247.28,283622.245,918994.3742,474870.17,401035.29,1692681.77,580931.9961,539014.36,439794.44,213895.9522,773336.0,1956837.725,611761.54,665635.33,932846.5,831643.8905,316849.0365,313235.7096,317684.75,501435.7835,446620.63,1429889.2314,1544836.98,419497.66,448243.53,373623.09,304621.18,243035.5,395038.39,207746.72,615426.74,364381.1,680430.27,490070.55,927582.0,368377.415,169394.45,599987.4014,967243.6,469842.5,221722.87,2291814.075,347022.0,305117.67,397023.04,385684.79,189509.93,416553.86,307073.82,316196.54,756454.57,865400.75,601544.4749,649967.06,613910.71,379372.734,393599.06,579689.95,463923.3048,311215.6,403198.0,806248.43,150093.0,207159.165,187667.5,264617.65,808124.24,345308.8125,309415.67,271790.175,227791.43,445826.37,180099.9146,417069.149,443838.46,386809.748,246988.61,187121.5,214935.988,611694.67,299846.86,267077.54,226936.595,433334.1126,323849.025,630324.14,737682.08,296387.15,948733.4093,79345.76,413187.27,216498.6,207762.56,757756.2793,176715.86,620178.78,355486.68,206700.94,190411.06,236362.94,376780.74,284075.88,112554.0,234440.63,588861.15,313650.74,136962.135,123508.93,196970.0,386345.985,103141.5,128359.9,176288.1564,131240.25,286356.77,354390.11,383174.8618,140458.5,250797.0,135806.4068,296693.06,65665.0,293245.215,445633.975,202444.98,136094.835,135105.145,251255.83,269283.48,296966.175,137017.07,194653.02,195392.9,203090.995,358388.73,444408.0,56278.5,549375.443,361404.5744,176244.99,178402.54,255550.44,171291.075,596220.0504,204760.913,84395.5,115284.4,255128.57,84395.0,373955.6,266436.0316,409130.7,237361.0476,318671.61,253945.02,158052.85,372798.93,384779.63,289476.96,267022.4965,351276.025,243717.789,240820.4667,103058.1,225144.1,140571.0,436017.44,1958466.77,266658.9672,223932.93,421729.82,238381.5164,132359.645,203826.85,331113.36,299100.005,180731.235,69780.15,317855.168,172317.995,469744.31,295043.4701,525803.185,324946.95,531051.8,267960.115,37615.5,612720.62,579810.318,263482.26,523992.73,377463.125,368247.95,640698.46,710332.57,425589.29,242011.4,537634.525,255703.8383,524249.76,418162.603,554204.19,1077985.475,515009.83,378315.57,493822.645,498701.7174,377454.185,349463.2,278885.92,411772.24,385097.165,273410.595,535637.735,433451.0,434649.038,618942.36,423995.0,415931.384,503176.7,551325.14,562297.785,713445.174,254113.0,538178.605,518318.115,176528.48,643094.2004,238867.52,546667.2744,154234.27,447851.585,859736.2795,391571.91,2560051.06,641340.335,246437.11,476975.565,193571.365,767955.08,264493.89,428056.675,305571.91,458851.36,497315.8935,549518.5481,532806.38,674950.91,476301.09,647069.96,529611.58,1016896.08,755778.3316,680692.295,781772.04,921596.1555,771518.295,784676.785,694871.065,1445588.619,1080630.59,645932.4637,1083919.05,1100075.375,1913947.75,2207074.655,951759.95,1006165.88,1717494.26,1927000.0652,1561399.035,1455671.33,1767149.025,3030591.2,2821850.095,3065121.6577,3124544.6506,6227370.5407
2019-05-09,4423093.8998,1020037.54,400736.16,367733.9275,467365.66,352791.5,604558.24,373206.3,111616.5,372862.22,485739.14,351959.63,491756.54,793694.861,293847.32,1327696.365,553827.398,681537.91,835484.483,826147.46,998277.1,428317.74,299701.35,502472.78,352486.88,307412.325,601013.6,203326.64,590117.9041,1344093.704,834056.66,1741088.326,1144297.99,448718.24,1205591.9168,436451.37,1170814.56,788765.48,348486.76,315816.105,719124.08,151308.18,853393.79,725672.38,319333.94,831174.8865,810552.1,325710.24,639500.95,1587565.39,1301973.655,959956.1,1773469.18,571577.65,857950.16,1288421.82,676750.7575,2365676.63,639807.175,1010224.14,1333990.83,1246912.86,1119952.81,1249052.26,616775.32,406675.84,329835.07,732526.595,266468.89,285851.04,297193.3,490305.123,1012831.96,326899.525,1269835.033,438023.72,452732.25,196163.32,277565.42,79396.81,147066.7767,401865.5,202385.81,477914.885,224188.0,549801.19,140102.0,360893.82,135263.24,1496952.559,329371.75,401037.88,378603.415,213155.8175,365014.99,224546.0,187153.0,224339.0,347882.7836,180178.85,520170.58,313227.86,723151.82,284650.28,469422.75,131328.0,412527.04,233823.97,213209.055,175418.9786,182702.24,404493.865,357834.3988,247303.5,266683.48,116895.54,723962.515,2044845.0,891803.53,291268.14,485285.644,361616.4854,1518817.75,618349.269,620155.1519,152732.66,514624.9238,309047.75,354204.43,275548.9355,847740.625,490930.01,1316552.57,1161400.19,555394.4,927882.32,119475.25,337422.0,143585.618,284212.468,156735.585,434158.4831,179584.5,554721.9,403485.46,1127609.7,117991.59,289235.4301,802370.65,583544.42,556403.75,367455.535,166310.71,725143.87,337828.14,214048.84,832604.2,773034.795,312943.02,763740.289,856404.92,889086.12,838854.788,246714.07,654731.5796,1095950.96,735969.9544,264482.1,531593.5892,501915.725,656243.49,1280974.43,374139.88,994789.92,729948.86,517457.04,850470.54,518080.67,490312.0,412794.83,563515.91,513358.78,440383.27,210339.85,301819.53,568799.895,480992.6721,453423.72,448350.89,555419.5,517349.5,320856.945,582202.25,701884.028,465333.6519,333318.86,381283.87,200262.519,353181.37,164225.16,261346.66,158056.0,242474.3,278736.24,190383.2,155935.12,228900.74,436082.5,303646.16,945863.845,348094.85,312813.97,614324.371,677948.73,535762.38,364952.9,373121.23,104310.5,238495.205,213360.51,217989.84,568298.0,170398.0,194269.57,344847.86,473195.04,153827.75,151327.0,140415.15,216737.02,198333.54,94516.5,428248.7446,314246.17,241625.18,141958.085,273908.9,233256.46,85152.0,300179.2,424714.75,189363.1,76596.4866,251397.4,233812.4,151852.79,255942.1,463175.5899,123158.16,189244.97,352298.54,175174.66,18935.0,286839.28,324237.65,42669.72,147748.2,138824.8952,529903.0965,351266.154,161909.475,208428.065,184434.81,100632.37,327971.234,103845.505,411402.06,263254.619,712930.783,283834.56,322231.0,188847.2144,776581.29,568459.306,209613.36,356122.05,769786.94,1237156.137,1033416.5714,736047.2,691961.86,183547.11,189528.5,341218.0,210448.54,186652.6,75811.0,146408.4552,94727.5,269993.21,812018.63,190168.32,199248.3174,168765.325,189467.99,252241.05,401927.745,375097.4,513637.955,138132.1362,354981.99,104002.93,122910.88,197890.84,683652.0916,435723.5775,472127.736,2235808.56,272634.215,214547.1876,295209.69,407355.42,267835.02,214702.005,268118.125,575513.0,331217.3374,254508.5348,399975.38,213722.2477,168484.4878,312477.28,206444.535,288488.59,175875.9,492344.94,518679.5,253524.452,360952.07,227673.2,518768.06,159981.5,2457927.815,211940.17,264000.97,282887.24,301506.42,396503.32,515291.245,375332.24,281533.2798,343942.97,833783.547,2521747.0,427533.92,232228.05,409358.33,394899.0,352794.04,405151.715,255105.92,112916.5,384300.65,159741.935,168195.62,169463.5,324617.99,196300.76,361838.463,688125.84,292564.375,360654.732,338920.86,644008.446,401336.8388,517261.12,469169.79,586573.45,421961.18,352367.62,466169.56,614061.89,518996.98,342297.49,532755.3208,872315.963,777953.05,402075.995,956288.295,747983.02,2090558.2173,902104.7,944476.195,900681.75,1494211.76,1354458.345,1690711.895,2062381.275,2719913.19,5572017.575
2019-05-10,2008948.84,234589.0,677144.23,475491.96,320289.2145,343098.76,112905.0,76838.52,160054.5,28265.0,188237.06,390153.7658,1549843.78,419165.675,421361.78,203697.9226,140896.0,103430.0,351325.22,290382.71,444572.49,223775.46,576278.29,1470272.15,933971.15,625743.05,379942.96,1146291.47,480544.525,797625.33,1942624.44,1146296.679,1321197.083,460640.46,338243.825,339192.77,830272.84,450764.8076,477202.62,318045.59,254607.2375,197379.73,280463.5,392100.0,308920.96,1053438.55,539263.39,277138.32,233532.24,423248.87,324999.333,130068.88,144587.49,349021.54,274021.9,270041.6468,194487.31,202177.3,47954.02,135852.944,195560.0,89358.5,321796.15,55793.0,46516.0,93006.25,185956.5,18583.0,142280.38,187225.96,298223.1027,381732.96,374387.1432,167028.5,121625.333,557264.0,539141.66,297920.46,363051.0,409140.99,241939.0,161004.91,231207.93,113031.515,2837797.68,355715.0446,669959.4,2300974.0,1122952.0025,360220.39,261009.0,158480.95,837980.84,243765.56,377558.7,292179.65,167878.0,58300.125,38104.16,743421.6712,372320.5,1785285.16,835769.56,269347.06,357531.8257,121134.5,125295.125,158650.75,298673.86,213057.9402,114192.23,811280.28,2302220.29,244717.425,206775.923,131014.0,130992.5,297512.252,409535.92,502511.28,579613.75,516393.0,138574.51,626248.4,173579.61,140154.0,217347.25,141163.0,425583.57,381379.6175,224936.905,190126.0045,238348.75,467531.17,261611.33,271068.0348,373559.5,112065.75,429928.23,167995.25,167648.69,394913.0,131009.0,454112.25,499168.28,548700.02,404218.55,225231.1,318336.5,301147.35,394629.0,767982.9458,358757.36,170508.016,56205.0,196671.43,96238.92,168350.0,206441.783,37425.5,56130.0,196701.62,247444.2,46900.0,115800.48,383048.18,681133.46,175517.42,103200.52,46924.0,93824.52,253356.0,114221.1055,146756.4844,150298.5588,76981.74,447203.21,264829.452,358349.66,162718.3773,395349.0,222942.77,248879.05,179072.0,302849.725,66038.0,116024.5,132054.64,131334.7735,222929.925,197839.48,181885.47,273127.06,37650.5,127142.1,56518.0,18820.0,160102.5,56497.5,301132.0,225002.5,216537.75,148033.5,93331.291,77325.8,44439.0616,180153.4604,131965.0,49397.48,169740.0,160304.0,135633.1907,469659.8,251071.1739,179427.62,75511.86,113201.5,37755.0,75500.5,118481.05,179430.5,163381.47,141609.0,141566.0,167406.6625,43379.2,263784.1,730009.1456,560608.4026,44357.3,459053.9,85027.0,227447.24,106692.6,195740.36,207593.5,182196.34,85051.5,83259.8983,428318.81,132275.0,181971.0,836542.5422,28371.0,66196.0,114747.3,96169.57,94505.5,217227.755,37815.0,208981.16,154942.9718,108694.0,111980.35,715823.06,133039.92,208153.0,85119.5,471328.12,37866.0,166780.67,105488.14,78058.0,83359.07,100393.3235,66165.0,103315.32,18900.5,1204870.92,1283137.21,517157.4,513664.85,408071.5,683476.8221,313432.23,189251.5,160732.1384,123857.51,246906.4,307052.8,174345.7,209334.25,294520.4503,673975.2981,329127.36,653037.87,264435.5,236097.5,18873.0,540124.3097,377748.3909,424126.5,857222.19,687140.92,507905.2094,945627.74,244575.0,248859.56,94210.0,122471.5,113039.07,207230.0,164904.3,113390.1612,243171.3,377964.4,377145.86,235711.5,572233.57,291648.88,47214.45,163419.0784,180189.69,75527.0,142634.51,164689.5,280959.98,951016.81,127483.175,18882.0,537446.3,473557.84,189066.6,140440.07,154078.0,145394.49,53409.45,233667.3672,56749.0,1216424.72,909040.0,208258.0,279705.505,263208.275,142096.0,107015.54,170617.72,104205.1,118256.32,880928.145,161094.22,152390.0532,75819.0,107919.14,364150.28,86965.35,326852.14,227819.0,113134.27,518601.48,239656.85,1355420.25,404025.33,253722.605,38044.5,410076.69,259223.162,203063.16,306647.906,285258.3092,485207.14,816332.66,868550.21,432289.54,587380.21,394163.8405,368689.22,299317.18,341230.8902,324946.01,325765.9404,317378.731,678839.1,2290134.9053,351060.111,406805.3307,499516.86,674196.63,566531.7513,1798266.89,1109102.57,1809706.06,2367489.1365,2033780.6,5963491.83,2297075.9587,2287521.475,1779682.8003,3098380.808,5704062.6624
