,09:30,09:31,09:32,09:33,09:34,09:35,09:36,09:37,09:38,09:39,09:40,09:41,09:42,09:43,09:44,09:45,09:46,09:47,09:48,09:49,09:50,09:51,09:52,09:53,09:54,09:55,09:56,09:57,09:58,09:59,10:00,10:01,10:02,10:03,10:04,10:05,10:06,10:07,10:08,10:09,10:10,10:11,10:12,10:13,10:14,10:15,10:16,10:17,10:18,10:19,10:20,10:21,10:22,10:23,10:24,10:25,10:26,10:27,10:28,10:29,10:30,10:31,10:32,10:33,10:34,10:35,10:36,10:37,10:38,10:39,10:40,10:41,10:42,10:43,10:44,10:45,10:46,10:47,10:48,10:49,10:50,10:51,10:52,10:53,10:54,10:55,10:56,10:57,10:58,10:59,11:00,11:01,11:02,11:03,11:04,11:05,11:06,11:07,11:08,11:09,11:10,11:11,11:12,11:13,11:14,11:15,11:16,11:17,11:18,11:19,11:20,11:21,11:22,11:23,11:24,11:25,11:26,11:27,11:28,11:29,11:30,11:31,11:32,11:33,11:34,11:35,11:36,11:37,11:38,11:39,11:40,11:41,11:42,11:43,11:44,11:45,11:46,11:47,11:48,11:49,11:50,11:51,11:52,11:53,11:54,11:55,11:56,11:57,11:58,11:59,12:00,12:01,12:02,12:03,12:04,12:05,12:06,12:07,12:08,12:09,12:10,12:11,12:12,12:13,12:14,12:15,12:16,12:17,12:18,12:19,12:20,12:21,12:22,12:23,12:24,12:25,12:26,12:27,12:28,12:29,12:30,12:31,12:32,12:33,12:34,12:35,12:36,12:37,12:38,12:39,12:40,12:41,12:42,12:43,12:44,12:45,12:46,12:47,12:48,12:49,12:50,12:51,12:52,12:53,12:54,12:55,12:56,12:57,12:58,12:59,13:00,13:01,13:02,13:03,13:04,13:05,13:06,13:07,13:08,13:09,13:10,13:11,13:12,13:13,13:14,13:15,13:16,13:17,13:18,13:19,13:20,13:21,13:22,13:23,13:24,13:25,13:26,13:27,13:28,13:29,13:30,13:31,13:32,13:33,13:34,13:35,13:36,13:37,13:38,13:39,13:40,13:41,13:42,13:43,13:44,13:45,13:46,13:47,13:48,13:49,13:50,13:51,13:52,13:53,13:54,13:55,13:56,13:57,13:58,13:59,14:00,14:01,14:02,14:03,14:04,14:05,14:06,14:07,14:08,14:09,14:10,14:11,14:12,14:13,14:14,14:15,14:16,14:17,14:18,14:19,14:20,14:21,14:22,14:23,14:24,14:25,14:26,14:27,14:28,14:29,14:30,14:31,14:32,14:33,14:34,14:35,14:36,14:37,14:38,14:39,14:40,14:41,14:42,14:43,14:44,14:45,14:46,14:47,14:48,14:49,14:50,14:51,14:52,14:53,14:54,14:55,14:56,14:57,14:58,14:59,15:00,15:01,15:02,15:03,15:04,15:05,15:06,15:07,15:08,15:09,15:10,15:11,15:12,15:13,15:14,15:15,15:16,15:17,15:18,15:19,15:20,15:21,15:22,15:23,15:24,15:25,15:26,15:27,15:28,15:29,15:30,15:31,15:32,15:33,15:34,15:35,15:36,15:37,15:38,15:39,15:40,15:41,15:42,15:43,15:44,15:45,15:46,15:47,15:48,15:49,15:50,15:51,15:52,15:53,15:54,15:55,15:56,15:57,15:58,15:59
2019-04-01,30,38,37,38,28,42,108,32,15,45,25,45,20,14,15,26,35,39,18,28,35,32,21,51,38,44,65,61,49,29,48,26,43,132,78,22,30,16,26,27,42,36,19,15,24,38,20,27,52,27,24,26,17,17,30,32,18,15,18,40,14,32,9,34,12,53,38,48,26,21,25,33,21,14,11,24,28,23,13,108,15,26,20,23,75,66,33,17,28,21,15,15,24,52,14,21,16,26,14,50,13,12,23,10,19,21,26,5,35,18,45,17,29,7,30,36,25,29,17,24,26,7,19,39,22,23,41,12,36,10,12,17,20,11,15,20,18,18,12,10,19,8,18,16,24,17,17,11,5,10,13,4,22,5,13,15,8,12,5,19,29,12,26,12,9,13,10,21,15,7,13,7,18,22,27,6,14,12,9,11,5,12,7,12,20,17,10,8,14,9,18,18,21,7,9,15,16,19,9,23,5,19,15,16,15,7,1,17,16,23,18,14,13,7,19,9,13,2,26,21,19,11,38,14,18,15,29,30,15,17,32,24,10,39,13,14,11,11,18,21,24,14,14,39,13,15,11,41,11,9,12,2,11,46,5,12,24,27,6,24,22,33,94,48,40,67,51,16,14,25,66,41,27,37,27,18,41,32,24,104,40,39,43,50,36,72,17,17,25,16,24,12,29,16,24,17,30,13,23,9,23,8,25,11,41,70,14,49,42,25,16,33,14,66,42,40,53,35,29,24,71,35,36,24,12,22,19,22,16,26,62,53,22,30,45,44,45,34,36,26,139,32,62,37,38,32,30,58,50,26,55,48,53,39,127,126,44,43,30,30,44,27,63,62,75,117,99,86,34,57,65,63,78,75,101,74,80,111,89,96,120,104,178,91,224,201,174,236,194,359
2019-04-02,28,13,40,18,31,60,30,11,4,19,12,28,39,6,16,15,50,4,31,29,20,27,31,32,40,43,95,60,73,67,45,21,63,19,29,7,23,8,10,17,15,25,17,10,25,20,34,9,7,7,7,58,5,14,21,29,12,15,29,29,27,35,29,15,24,31,1,39,28,15,35,24,9,10,22,28,56,34,48,17,24,7,41,24,23,25,14,79,24,55,27,53,18,56,21,24,30,23,29,31,28,25,94,45,29,112,29,11,22,32,31,21,24,49,54,61,9,14,13,14,18,16,20,73,41,16,20,19,19,13,11,21,11,14,10,18,7,22,28,19,16,14,23,13,16,17,30,12,15,18,22,45,20,14,13,22,40,18,16,23,38,23,12,23,12,14,45,13,16,32,28,51,28,14,22,6,15,44,14,9,18,8,19,13,14,6,19,9,11,14,11,12,11,22,10,9,24,13,17,5,13,13,14,8,16,16,24,13,15,10,11,4,69,4,18,24,14,7,15,9,4,18,6,7,11,13,10,19,5,15,10,10,6,44,13,9,6,30,8,13,8,16,9,7,15,9,3,11,15,31,2,9,11,15,14,24,11,19,11,15,25,25,58,14,22,31,13,12,21,15,15,20,20,14,12,15,15,22,9,17,22,23,14,12,16,15,20,6,23,25,11,29,23,17,22,21,8,9,23,13,6,5,18,17,7,16,5,18,82,9,12,10,45,17,24,22,11,58,38,45,24,21,19,24,14,33,24,16,29,36,69,71,20,28,48,43,29,4,31,38,17,23,45,29,36,11,13,29,46,21,21,33,10,45,25,39,32,49,124,15,23,38,18,38,48,46,38,27,16,52,23,50,42,60,44,79,122,54,95,47,88,106,149,54,131,168,126,105,207,608
2019-04-03,12,33,40,13,38,35,18,11,10,31,31,36,41,35,4,19,20,108,43,31,57,43,26,27,15,36,24,28,18,30,55,29,30,59,29,17,13,14,8,8,12,28,8,8,20,11,14,16,18,11,37,25,43,18,23,59,24,50,7,3,100,23,11,43,12,16,20,20,79,55,135,23,9,8,11,33,23,24,25,25,40,33,18,57,92,39,41,18,18,37,25,59,21,27,26,10,32,10,29,13,38,29,18,44,13,28,23,20,29,18,25,20,18,37,17,20,51,30,30,44,36,16,25,3,31,25,31,49,28,20,28,21,16,29,10,14,30,34,20,12,22,24,21,14,69,23,24,29,19,43,28,65,66,51,29,54,57,23,39,60,26,67,38,24,20,15,23,14,25,10,39,21,26,44,43,44,118,121,70,36,49,62,69,42,43,26,16,29,25,31,41,33,20,44,77,39,16,14,28,16,18,49,28,30,26,17,15,10,17,24,15,14,22,6,22,10,14,26,13,19,8,8,18,13,17,21,8,49,15,26,27,70,25,22,16,24,10,18,16,15,19,10,22,15,12,27,9,41,23,26,20,18,39,13,23,11,17,34,26,27,43,18,27,22,16,21,11,36,39,13,28,81,54,36,32,30,18,22,33,29,8,9,20,5,15,19,38,32,9,10,26,24,26,40,32,22,14,39,40,41,19,45,17,23,31,51,38,21,32,30,43,62,28,39,32,39,27,36,30,49,52,40,25,35,54,32,31,37,31,32,23,34,22,45,33,44,42,29,41,28,26,61,34,61,45,78,53,76,89,67,28,87,65,67,62,39,23,26,45,41,62,50,92,49,78,70,53,55,37,39,75,51,44,76,82,80,91,63,79,75,83,87,230,240,248,338,230,448,406,724
2019-04-04,11,32,36,32,23,62,36,7,21,50,23,76,31,19,21,19,27,12,74,36,56,32,25,22,23,17,51,33,31,38,58,39,26,22,19,23,56,22,50,20,29,22,37,50,79,47,23,19,28,15,16,51,55,69,40,33,29,16,7,60,20,11,41,34,6,18,19,17,16,18,18,15,7,26,12,15,27,10,17,11,4,6,19,22,12,33,59,38,23,29,22,17,98,61,130,84,120,91,56,187,119,68,39,43,16,19,27,16,15,33,27,17,20,10,21,30,24,28,36,97,24,19,14,24,24,72,24,50,23,90,41,8,66,15,40,16,36,37,43,118,67,25,56,103,49,36,80,26,64,73,59,48,54,33,22,49,43,50,32,36,20,38,20,11,27,24,18,18,17,20,20,9,32,20,16,16,17,15,15,16,22,70,13,37,9,21,14,5,35,16,11,9,26,24,22,4,11,11,11,33,23,13,24,104,14,38,15,22,12,22,17,6,26,11,17,13,15,8,9,9,8,6,4,8,14,11,12,19,61,13,60,61,15,15,20,12,8,38,96,60,37,115,17,23,20,10,23,35,14,24,21,13,18,20,13,15,11,51,43,29,26,33,20,27,37,95,41,89,116,52,67,35,41,19,34,28,71,105,54,146,111,181,66,84,53,52,46,76,39,40,30,22,64,19,44,44,60,21,39,21,25,18,24,29,11,19,38,19,20,24,22,14,32,35,41,17,18,16,26,18,17,24,16,19,27,26,27,47,30,29,23,32,28,33,23,52,41,54,90,26,35,29,26,24,50,30,21,35,46,30,27,30,37,30,30,44,20,35,50,64,73,55,18,71,22,58,32,53,39,44,51,30,121,56,89,106,78,69,96,90,85,70,107,96,166,201,122,260,271,639
2019-04-05,8,18,39,73,39,35,12,44,50,31,25,46,14,20,5,51,121,58,22,27,76,42,21,54,45,35,43,44,24,37,39,38,57,66,73,111,105,72,78,34,61,85,38,37,19,45,29,20,48,45,42,21,33,16,44,45,33,72,22,34,26,28,72,47,36,34,41,37,37,13,39,16,40,24,23,23,14,22,28,8,48,35,54,15,27,37,60,75,85,54,40,31,39,32,15,21,31,14,35,23,24,30,47,81,57,37,40,32,26,41,107,40,34,28,32,43,49,31,88,57,45,133,56,76,196,100,58,82,77,104,50,63,42,31,41,19,22,15,13,8,26,20,38,30,23,25,18,20,14,23,18,33,21,39,23,24,16,11,15,5,4,7,11,24,12,26,15,5,29,17,38,31,64,21,21,27,14,19,15,17,11,9,14,27,16,12,17,10,61,24,32,32,30,24,16,43,32,23,19,32,22,21,23,23,103,16,36,30,18,34,50,44,43,65,55,71,57,50,66,34,51,61,58,92,72,92,55,62,67,20,56,22,33,25,27,47,18,73,50,37,45,99,37,16,23,12,18,30,62,26,29,32,44,45,53,47,31,30,27,30,26,27,55,68,41,23,27,56,35,45,37,27,19,48,38,49,47,138,40,13,13,99,91,18,29,46,53,39,37,27,29,39,19,17,26,23,34,34,32,18,43,42,34,41,52,40,33,36,26,42,29,26,51,18,14,14,43,13,16,33,21,47,12,51,27,31,56,74,49,54,53,56,34,31,80,86,51,66,22,68,36,78,43,42,22,53,23,67,17,37,26,62,42,30,35,50,48,56,38,60,66,81,107,71,74,68,58,60,103,73,94,91,56,96,97,165,107,83,110,125,173,147,164,163,184,333,302,347,488,1021
2019-04-08,41,62,103,114,134,78,79,47,82,117,94,79,147,131,84,148,126,91,156,138,157,188,264,255,172,115,118,127,126,94,77,132,93,164,56,193,60,99,26,144,56,37,96,100,21,81,59,106,138,54,75,41,47,27,25,48,27,62,69,91,70,47,136,73,98,68,57,52,56,156,138,67,49,38,56,72,74,56,41,44,77,102,69,63,51,76,61,73,81,69,21,73,160,54,95,107,117,156,19,183,168,38,274,120,139,56,30,65,29,47,29,26,43,41,37,40,31,30,64,19,95,40,25,45,37,44,33,59,35,17,45,47,46,60,77,56,73,16,50,25,41,28,42,43,26,50,32,28,28,37,36,44,68,71,58,15,21,29,24,19,26,33,18,19,26,31,26,12,5,16,14,19,51,84,89,46,85,38,10,49,22,50,44,18,40,162,30,33,16,12,35,120,42,43,31,18,55,36,19,65,34,18,28,7,20,18,27,20,24,15,15,7,21,18,14,14,12,42,31,19,14,18,10,22,11,36,23,18,14,23,10,17,11,11,20,17,9,9,15,26,51,28,49,16,4,36,46,31,43,16,41,14,17,38,17,55,18,33,92,116,73,47,72,22,28,35,16,33,25,10,32,19,61,63,88,99,136,42,50,22,27,26,25,20,7,18,21,32,24,23,19,169,25,36,31,41,33,41,68,39,67,133,81,83,41,19,20,23,23,13,27,27,26,8,23,42,14,67,13,28,22,25,20,47,10,20,16,34,32,21,41,19,22,33,21,29,24,24,47,35,25,17,39,27,35,35,17,29,22,40,67,29,56,28,22,57,23,26,26,35,125,47,35,30,26,91,42,140,64,38,123,69,51,25,58,98,66,74,69,59,63,62,103,98,89,175,114,265,246,1293
2019-04-09,28,54,14,16,35,35,41,43,94,128,49,51,11,19,55,46,46,118,80,57,21,35,54,67,36,32,26,34,51,92,90,44,16,29,29,22,45,28,49,6,37,16,40,27,51,25,5,22,24,22,29,31,21,10,31,25,10,24,89,23,29,44,17,19,13,10,23,36,31,16,13,22,13,51,38,17,12,33,43,20,13,32,40,3,21,10,25,41,38,13,18,2,21,24,31,13,17,4,34,7,42,42,24,28,38,29,49,22,91,83,22,83,25,21,77,17,9,7,37,7,28,91,81,48,50,42,23,40,16,15,22,32,47,16,53,72,35,25,31,25,111,79,39,81,184,58,46,50,17,26,32,41,32,19,78,67,9,27,53,61,32,39,39,36,57,55,65,61,89,153,33,50,44,69,31,29,20,46,24,25,64,43,43,79,49,42,58,26,44,33,40,18,85,78,52,38,28,35,29,25,29,40,47,38,28,43,73,24,15,42,52,23,23,23,38,14,15,57,40,25,26,25,24,37,18,43,26,21,34,28,24,35,17,38,24,4,39,23,62,27,30,17,47,12,53,66,61,84,136,43,39,47,14,17,27,20,48,12,8,12,61,56,21,25,40,33,20,30,19,32,47,13,38,22,40,27,17,32,38,39,20,37,25,31,28,38,21,13,54,30,73,30,41,25,75,40,74,50,29,32,44,16,30,31,17,38,21,35,36,30,51,57,88,114,34,41,26,25,19,42,44,27,32,165,44,20,36,22,60,14,72,76,23,44,42,81,56,39,53,32,61,53,43,49,12,61,35,119,88,50,44,66,119,55,43,40,42,63,126,50,65,73,59,72,65,65,36,67,88,55,91,104,78,67,68,126,81,100,75,64,204,117,228,164,133,233,197,347,353,748
2019-04-10,1,2,27,66,65,62,49,21,28,18,23,37,22,29,52,10,43,21,56,32,58,98,35,27,37,20,57,37,58,126,97,65,25,34,40,22,70,59,28,20,14,10,30,27,34,26,70,54,48,116,151,63,27,36,23,79,37,28,10,21,45,61,38,25,25,65,28,21,19,29,50,75,29,88,64,39,56,47,43,43,34,84,30,24,26,22,25,25,8,16,17,32,16,56,78,22,86,45,16,22,18,22,33,21,29,23,44,24,34,14,36,29,36,34,26,21,13,21,46,34,12,23,8,23,17,30,30,23,45,57,15,29,25,58,13,20,17,77,24,29,16,38,18,23,32,46,47,19,8,28,41,63,29,24,30,12,45,72,67,57,14,13,76,15,55,50,34,13,36,4,32,27,56,39,47,29,37,48,73,55,49,32,42,42,19,20,20,12,13,34,30,33,44,20,20,33,24,39,44,38,16,24,15,72,31,19,12,25,34,5,78,40,52,29,81,32,21,70,54,30,44,26,10,28,65,33,18,22,21,39,26,9,37,10,32,17,49,25,58,15,22,17,24,14,25,44,19,28,14,41,22,15,15,18,29,12,28,16,12,35,15,16,27,15,14,7,12,35,33,36,26,16,37,20,32,28,18,18,19,25,12,38,12,50,32,31,27,22,30,122,70,40,42,35,25,15,35,34,20,56,14,29,36,27,14,13,41,47,9,26,28,25,22,17,26,21,24,27,46,14,27,18,22,5,5,34,24,19,31,21,24,45,49,27,165,35,14,19,19,24,45,54,28,20,12,35,6,25,23,75,25,53,43,26,35,27,25,56,50,12,39,20,49,46,23,71,56,74,43,74,50,107,92,72,32,148,84,98,77,104,69,135,129,101,147,192,195,181,279,406
2019-04-11,26,16,6,24,30,48,19,9,53,67,41,18,22,2,18,65,113,38,29,10,58,1,17,8,21,13,48,25,38,76,36,12,16,23,17,7,23,9,10,8,18,27,15,18,13,32,4,14,27,15,26,14,23,28,18,92,28,16,11,27,9,35,8,9,34,8,8,10,17,13,11,13,43,20,10,20,44,18,29,14,5,16,9,22,47,41,33,47,24,29,31,23,36,56,64,29,41,45,23,17,43,13,16,38,35,47,26,35,47,26,18,102,67,27,100,67,33,30,42,59,53,52,43,32,12,54,52,26,29,43,85,76,57,59,21,68,16,14,57,15,41,21,29,48,55,27,14,60,50,49,48,19,20,51,63,40,48,12,94,29,45,62,33,12,11,22,65,59,11,28,20,66,50,46,29,38,15,47,66,67,60,97,42,66,59,80,26,33,83,69,82,95,46,25,24,38,9,2,51,17,29,93,61,18,25,72,18,10,17,60,58,11,26,72,17,19,13,3,17,84,14,25,11,81,38,9,21,90,60,35,75,18,98,207,54,38,44,63,86,30,89,8,36,8,18,36,10,12,9,20,12,22,30,15,17,26,35,17,87,41,19,23,16,11,27,54,15,36,47,33,13,4,24,25,24,8,10,7,29,11,17,22,22,17,19,7,17,15,16,15,17,23,35,16,12,12,13,6,20,14,6,9,13,4,18,6,10,6,8,11,29,16,10,17,4,12,7,6,13,12,21,8,20,25,16,23,16,8,11,11,30,30,31,28,16,24,10,6,4,24,13,38,15,6,11,52,12,5,6,5,12,13,38,19,28,31,20,4,26,7,20,77,9,21,11,24,15,21,25,32,12,29,74,32,29,24,46,60,41,88,62,123,67,116,110,74,105,110,212,593
2019-04-12,206,175,162,155,131,205,155,130,166,58,106,133,118,106,97,80,78,89,204,109,97,64,43,93,122,97,175,189,164,108,127,154,148,104,72,81,106,74,69,93,88,69,71,71,41,86,48,32,42,51,59,58,91,76,93,30,118,50,25,37,69,98,147,267,117,67,53,64,54,83,93,56,45,99,95,64,86,51,36,40,55,48,58,54,37,37,67,39,47,40,23,74,38,60,51,31,70,31,11,20,42,32,31,59,24,31,37,33,45,21,22,70,47,55,32,85,18,29,27,35,31,56,22,27,30,34,23,39,23,41,40,45,19,24,33,34,21,26,41,18,16,49,39,32,62,27,49,22,36,21,23,25,34,43,35,22,29,71,14,34,29,34,16,33,32,41,38,77,43,40,19,13,77,59,23,30,12,26,30,40,51,30,20,19,18,19,22,29,32,40,60,106,115,78,151,127,147,85,168,52,40,29,45,51,39,63,43,234,76,26,49,129,98,180,26,64,51,41,58,156,28,54,60,136,66,37,39,80,28,52,51,70,59,34,99,90,84,97,56,68,157,57,87,63,52,53,71,49,65,50,107,112,117,96,82,97,54,72,70,108,59,57,126,115,24,67,29,77,52,91,62,51,77,43,61,72,61,50,37,97,47,58,54,107,88,70,121,80,84,111,72,121,71,49,114,104,59,51,20,154,350,84,41,48,103,54,63,42,69,62,88,51,49,98,72,53,109,121,57,46,137,145,183,226,81,89,84,64,126,70,111,74,65,108,131,96,155,77,73,79,91,111,170,107,106,134,94,117,111,142,95,105,262,170,86,84,58,108,56,104,93,66,112,101,128,100,143,197,173,128,145,124,168,130,172,146,126,130,152,125,148,180,208,205,201,284,201,272,400,803
2019-04-15,54,54,40,167,67,104,111,192,42,68,61,59,67,75,77,61,38,121,55,41,59,74,83,75,45,83,210,177,45,49,108,67,108,78,71,80,35,64,57,36,45,46,32,37,44,35,18,34,47,29,37,55,66,51,62,55,60,47,74,48,77,45,54,45,25,18,12,44,40,46,59,22,33,34,20,21,12,44,32,65,71,36,54,69,64,71,28,49,38,99,117,44,46,33,23,45,34,66,21,43,30,19,14,54,51,71,68,54,26,32,38,25,24,25,21,37,19,33,22,32,31,30,11,25,27,14,29,49,48,28,107,79,48,71,51,54,39,65,99,39,30,44,38,37,25,21,80,12,18,11,29,31,40,40,26,34,13,20,51,70,48,76,32,20,18,27,17,19,19,43,9,14,14,17,18,41,25,6,20,12,38,24,36,53,14,20,34,4,43,20,20,27,22,12,20,27,20,12,21,28,24,14,26,38,16,15,34,19,27,6,43,8,29,34,31,60,17,18,50,15,31,12,22,31,60,23,19,58,28,10,23,39,25,10,9,40,15,18,22,9,21,21,29,23,40,31,41,17,43,38,19,48,47,17,31,57,45,41,25,10,37,10,53,28,7,43,26,27,11,42,51,32,16,49,23,25,34,32,15,28,34,25,37,51,25,12,30,19,21,49,38,60,47,19,27,39,14,32,13,26,35,21,17,14,43,36,44,33,16,47,24,79,64,42,32,69,38,24,42,123,54,43,37,34,38,53,32,51,18,49,21,40,38,67,65,42,71,29,24,33,39,24,23,39,27,34,38,80,32,31,30,31,37,35,25,35,36,33,52,94,70,122,34,100,101,91,95,66,77,91,66,67,127,33,110,127,146,127,136,106,348,110,269,135,189,278,259,440,609,1244
2019-04-16,26,55,70,45,80,77,40,67,91,128,69,73,53,87,44,36,34,31,37,38,48,47,64,39,46,29,62,38,37,23,156,146,65,55,50,77,52,84,51,40,74,24,41,99,52,163,58,62,46,125,53,77,42,51,48,89,79,86,44,71,55,43,12,19,45,38,48,33,42,30,54,29,48,51,48,58,50,57,44,16,44,56,10,53,54,41,46,16,27,69,20,43,58,15,47,31,46,29,31,51,102,58,37,46,55,34,27,14,26,16,16,37,35,16,55,24,33,23,22,31,10,66,19,13,34,34,23,22,45,56,24,11,31,29,23,30,23,20,27,16,37,42,24,34,34,46,79,56,39,51,52,46,24,36,43,29,29,39,38,27,19,19,32,16,16,33,36,25,29,40,19,51,18,42,30,32,28,26,15,31,31,25,37,36,26,41,18,28,9,34,25,46,31,31,11,9,41,19,8,18,20,14,13,144,40,26,19,20,20,50,20,20,15,39,13,26,16,19,31,8,19,22,28,28,49,34,25,9,16,29,40,13,12,34,25,15,26,18,31,9,54,26,3,31,17,8,11,67,15,23,24,33,20,25,38,38,64,31,35,54,4,29,28,10,31,36,23,18,24,30,22,62,43,41,33,55,47,63,26,66,25,27,44,50,28,64,46,48,35,175,37,21,50,23,11,27,32,73,28,23,30,17,27,22,11,22,33,9,23,32,20,17,18,30,15,16,19,53,43,24,10,28,13,28,15,27,33,18,35,12,25,20,22,19,23,65,35,13,18,42,24,11,20,48,23,13,25,27,29,29,35,4,31,29,35,48,43,75,25,30,28,55,76,70,45,85,46,69,66,48,63,50,44,70,42,89,78,91,57,67,84,121,90,99,105,116,160,182,233,443
2019-04-17,46,4,40,50,24,73,48,50,108,55,39,96,32,27,68,35,17,9,12,20,15,31,25,8,18,16,21,12,17,0,41,35,25,29,78,37,12,20,21,18,20,28,19,44,25,17,22,41,20,43,43,22,99,28,11,8,14,22,9,5,43,63,13,37,17,34,25,22,27,39,15,16,19,11,20,34,16,19,16,17,26,18,28,25,29,62,27,41,18,35,51,28,28,39,66,78,46,44,50,91,40,48,24,112,19,30,27,75,30,125,20,29,38,32,46,46,11,21,39,14,38,61,23,51,37,19,18,29,58,6,13,11,24,23,11,32,40,18,57,30,18,39,17,28,22,22,18,22,22,16,28,71,17,16,25,36,63,66,71,78,38,36,38,41,20,47,29,25,69,48,45,37,64,14,16,18,45,20,35,33,40,30,23,49,46,19,44,31,67,32,52,68,127,52,30,20,8,17,12,14,21,18,16,32,26,22,23,16,17,15,10,22,16,24,12,10,12,13,18,10,6,10,25,11,16,26,13,38,6,29,11,44,57,38,44,86,59,43,53,23,3,11,30,9,9,12,13,4,11,7,16,9,16,5,37,17,27,26,8,15,36,16,29,20,15,24,9,27,29,34,7,17,30,16,13,8,31,5,8,16,28,23,22,17,19,22,17,9,15,5,24,16,18,23,15,15,29,16,12,12,20,5,12,12,25,11,24,14,11,20,17,30,23,14,18,27,24,4,9,19,26,22,6,24,22,17,16,12,9,19,35,12,13,21,20,32,22,5,18,16,25,41,12,21,56,42,27,32,22,18,16,19,32,23,24,18,26,74,39,20,14,45,18,35,31,28,41,36,35,33,23,42,39,37,22,71,74,65,49,57,69,135,75,157,106,131,59,145,213,370
2019-04-18,10,12,13,11,50,31,22,16,10,26,19,11,20,10,30,2,19,18,11,31,9,18,5,10,15,31,11,14,22,21,11,56,13,29,23,66,22,30,37,25,34,22,68,20,32,61,15,11,4,10,24,33,59,54,21,36,68,31,8,15,56,33,20,34,40,20,7,37,13,6,18,29,48,74,67,29,31,60,76,47,100,60,58,40,89,32,80,62,63,47,30,27,16,23,45,49,28,28,24,21,41,33,18,28,50,33,28,15,53,53,16,75,33,28,21,36,11,36,84,25,29,82,24,48,33,59,6,26,29,78,32,23,23,43,46,23,18,50,45,59,14,37,74,50,25,46,14,38,29,15,24,124,89,49,53,85,101,73,60,41,16,28,25,86,28,17,13,22,35,14,16,56,17,31,13,32,27,16,36,58,32,16,15,7,28,36,23,34,45,21,14,19,9,19,9,20,30,27,45,8,9,18,19,12,31,36,9,17,8,19,14,23,83,30,19,19,82,63,17,19,8,31,38,27,15,15,10,30,30,21,11,20,18,23,33,17,28,17,19,22,28,12,28,29,5,17,12,31,29,34,34,22,25,16,24,65,13,4,55,26,46,57,4,31,18,20,48,12,11,21,17,54,38,18,30,24,38,4,26,11,18,67,18,31,21,16,21,40,25,55,22,13,18,35,5,34,38,24,10,38,23,35,15,44,36,77,28,40,31,17,21,26,40,19,21,21,64,52,42,39,48,37,38,20,17,34,11,36,21,25,23,42,15,30,52,24,33,78,133,83,42,22,3,26,12,31,43,101,28,7,48,41,39,99,16,28,54,31,24,18,74,26,66,32,23,61,41,57,53,39,35,38,70,120,147,124,62,85,110,76,174,140,111,191,151,138,198,190,287,463
2019-04-22,15,41,69,68,55,48,29,37,117,53,113,76,44,41,43,18,37,17,14,49,7,21,30,27,22,37,16,20,13,14,34,41,2,16,27,1,23,33,102,37,29,58,45,36,16,14,30,40,14,18,20,64,57,30,42,27,41,94,50,108,52,55,57,185,63,29,42,57,29,37,34,38,16,15,41,22,19,47,84,17,34,41,36,45,41,76,37,40,19,51,37,37,23,36,10,11,53,8,22,36,40,61,56,38,16,35,21,21,21,26,33,24,42,26,25,34,22,17,26,15,13,33,26,32,18,26,8,27,36,16,57,42,15,36,8,36,52,27,37,21,48,69,46,16,87,33,117,104,107,59,39,24,33,19,27,61,111,53,24,62,18,39,49,15,37,73,18,14,22,15,43,14,22,24,21,17,36,36,20,33,27,62,40,30,27,24,14,8,33,17,32,16,20,21,9,20,28,6,22,25,8,29,23,28,24,32,21,39,20,13,22,27,38,54,32,11,14,25,34,29,33,18,21,11,34,8,11,18,20,40,18,13,26,31,27,31,35,23,33,46,38,8,22,17,22,14,32,17,28,16,42,11,11,42,35,22,16,17,25,15,8,67,69,65,3,68,56,44,48,23,21,19,24,8,15,14,28,7,19,15,14,16,34,39,24,22,26,9,14,25,20,20,22,19,17,21,39,17,46,25,11,24,19,21,22,20,18,25,13,38,22,127,49,54,57,31,37,43,32,24,26,12,20,14,25,49,72,24,50,44,25,42,26,21,34,26,34,38,45,35,26,18,17,21,33,19,22,44,30,38,35,26,33,22,32,41,15,24,30,87,67,79,86,186,58,65,73,59,77,73,65,44,48,50,73,137,98,81,106,130,99,128,157,150,143,205,122,224,466,740
2019-04-23,22,34,39,59,62,19,48,53,23,41,44,87,44,50,21,54,55,104,28,59,28,58,18,37,36,26,40,50,78,104,46,46,19,37,173,98,47,91,54,92,25,87,31,81,140,95,100,63,43,47,40,92,29,23,77,7,22,38,15,16,63,31,18,9,22,17,21,10,21,11,15,17,33,32,22,13,30,22,39,23,24,37,34,72,21,13,40,33,16,23,16,49,24,26,46,100,41,58,43,21,38,20,58,18,46,44,22,83,12,28,97,21,21,73,79,22,14,35,98,33,63,43,52,36,27,15,35,22,14,44,45,54,31,17,13,25,21,21,28,24,30,69,16,24,39,16,15,46,64,78,31,83,37,35,34,61,57,47,42,17,43,13,22,50,95,77,8,40,23,56,28,24,39,24,20,32,49,35,26,40,28,42,42,27,40,28,48,71,44,38,51,51,45,44,38,54,50,36,42,46,35,41,39,132,52,24,30,30,19,31,38,24,50,42,22,33,39,34,24,19,31,34,61,97,90,55,55,88,62,58,57,69,92,66,113,65,35,67,40,19,78,38,40,45,20,21,32,22,33,39,37,61,35,60,63,65,48,51,33,19,49,31,35,23,16,7,29,19,15,36,25,65,23,50,32,33,50,62,17,50,88,49,32,36,29,44,52,41,23,49,61,94,109,55,61,80,42,53,45,11,18,30,34,26,12,28,14,23,11,46,13,25,42,27,27,73,13,17,25,24,13,24,52,43,15,50,71,33,66,58,111,13,40,32,30,17,20,14,32,30,45,34,25,35,39,95,22,29,45,38,40,25,30,38,29,23,30,40,47,36,74,50,49,57,63,49,44,65,61,65,92,104,52,89,61,129,84,102,126,79,94,162,205,121,186,272,192,184,326,653
2019-04-24,89,29,53,51,26,28,37,21,24,18,13,35,15,30,37,40,32,61,25,24,51,68,53,77,9,34,13,61,20,13,13,21,43,41,58,43,16,30,28,30,90,24,70,50,22,6,20,20,17,9,92,165,10,53,14,7,43,28,28,24,32,26,4,18,24,36,15,5,10,19,13,22,20,29,48,42,22,24,27,16,22,10,33,126,123,49,31,37,80,55,59,63,79,51,40,43,32,102,114,80,36,17,25,18,34,44,21,76,54,38,100,59,28,65,18,40,22,66,49,30,26,15,19,35,62,31,6,27,20,13,22,13,12,48,32,17,36,9,10,41,12,6,30,36,30,19,15,12,7,4,4,23,34,47,43,18,27,6,16,4,16,26,19,25,13,23,24,15,19,31,6,48,55,39,24,12,5,7,23,12,56,30,2,14,22,36,186,9,26,61,10,25,24,11,7,19,11,5,10,6,6,18,13,8,25,15,14,13,22,64,110,43,13,4,3,4,28,23,2,12,30,22,8,63,55,46,17,9,20,9,21,23,3,11,36,3,20,63,35,94,114,19,25,18,4,16,5,17,13,21,24,45,18,31,7,14,70,10,3,29,24,14,29,17,25,24,46,21,13,12,41,25,17,21,24,16,36,24,27,17,15,30,4,23,12,31,21,8,20,9,14,29,30,12,17,18,33,32,19,55,35,22,25,32,17,18,24,14,23,18,5,42,21,35,9,31,28,26,10,25,16,23,41,18,23,11,33,24,24,38,47,24,20,17,78,49,7,24,24,45,19,20,35,35,40,22,28,9,14,50,32,30,18,27,23,16,19,22,34,35,55,50,43,41,77,77,33,25,54,32,37,31,76,36,60,40,91,31,53,64,87,93,84,83,140,239,261,308,358,611
2019-04-25,23,9,24,47,34,22,32,40,50,37,34,40,17,57,60,35,8,14,20,14,6,29,27,27,22,38,43,36,25,21,32,35,23,9,45,26,35,13,33,28,42,51,73,31,20,25,19,29,37,32,14,29,32,26,45,25,19,16,18,37,79,16,30,15,17,32,75,32,25,21,39,10,24,24,27,24,15,32,14,52,21,35,22,24,64,39,21,16,9,11,20,23,14,26,31,29,52,114,36,21,14,36,26,25,20,21,45,36,21,16,13,23,26,83,65,52,26,26,17,25,19,64,18,86,60,55,45,20,16,81,40,13,31,13,24,31,17,7,41,54,39,25,7,14,33,40,97,38,26,29,19,30,32,39,20,18,19,17,17,12,43,28,13,25,21,30,50,30,25,8,27,24,17,18,12,9,12,12,19,9,30,5,20,12,20,20,17,10,30,16,24,13,22,4,28,21,17,25,18,14,19,24,16,30,16,22,26,12,31,19,15,21,20,30,15,33,16,38,11,9,10,27,19,23,24,41,19,21,31,13,15,24,14,17,16,17,21,27,22,27,21,18,10,23,10,20,14,12,27,21,12,22,9,13,20,2,31,16,76,57,16,19,7,9,21,18,54,45,22,17,46,38,69,28,26,18,25,40,26,58,15,34,31,26,27,13,10,17,23,22,26,16,32,17,24,39,52,24,19,34,16,51,15,17,7,34,30,21,32,30,77,29,37,21,70,65,38,48,54,17,43,30,29,40,10,25,22,24,36,21,28,14,37,24,36,10,16,24,22,49,49,26,51,49,21,67,34,66,84,27,34,38,34,18,61,81,44,54,74,16,89,43,47,33,57,38,43,46,57,21,46,73,52,85,35,101,62,43,121,73,127,87,96,127,186,374,301,390,406,626
2019-04-26,76,27,22,41,31,137,82,76,47,36,123,109,95,102,62,79,8,44,64,55,71,89,49,91,44,20,27,25,22,46,75,35,44,38,33,56,54,45,46,55,57,52,71,65,50,36,24,24,29,59,37,44,59,71,88,64,33,36,34,32,61,38,40,70,28,49,43,268,53,33,49,38,46,72,127,49,60,33,60,27,41,36,68,90,50,75,85,60,53,50,53,57,45,51,50,53,45,46,40,46,40,44,79,71,116,47,89,55,33,55,47,105,111,72,99,80,91,97,90,76,75,140,50,49,38,55,48,43,22,28,27,53,73,35,40,30,67,38,50,69,57,45,39,32,20,31,34,64,24,27,29,37,24,26,45,81,46,86,34,50,30,35,60,65,43,71,33,75,101,33,77,46,35,32,25,35,67,22,25,35,16,40,37,20,40,21,41,19,34,37,27,21,26,36,34,39,102,29,22,49,57,23,56,58,39,31,108,61,55,61,51,38,45,46,71,92,77,19,20,45,31,34,41,93,32,14,32,30,14,40,45,15,27,26,27,31,30,28,27,14,53,15,87,63,13,34,26,16,34,14,33,11,47,22,18,23,18,34,7,16,23,7,19,19,18,37,18,21,32,18,42,17,43,32,38,18,44,40,39,45,42,44,33,29,80,42,25,9,39,18,34,35,54,38,46,50,46,46,88,72,89,43,59,48,132,27,34,77,46,38,43,31,5,14,25,23,17,20,14,33,29,54,56,12,42,16,45,18,34,28,39,27,73,36,29,35,44,40,35,63,51,76,22,49,56,42,44,35,39,126,54,68,47,25,77,75,55,65,65,62,82,117,71,47,95,63,108,181,153,121,92,61,72,54,75,145,104,120,91,106,123,137,212,275,142,229,331,210,215,1093
2019-04-29,38,12,33,33,49,85,43,86,80,88,16,26,13,15,34,17,4,36,67,49,22,43,44,10,42,35,47,30,48,14,48,58,74,34,40,25,65,74,24,53,16,44,20,48,39,104,111,70,52,104,56,55,69,42,27,45,41,59,76,49,98,43,77,53,21,31,69,41,43,54,72,24,36,31,37,77,85,33,72,73,49,50,60,151,51,67,85,50,30,83,65,36,53,51,86,56,39,46,47,26,57,22,69,81,175,34,60,70,61,67,103,78,52,62,180,120,100,43,64,50,67,116,38,77,24,17,33,53,41,9,25,90,19,60,35,60,61,78,54,89,42,33,47,47,80,94,107,226,131,32,21,16,10,28,28,42,16,24,26,22,26,14,66,96,36,22,9,14,38,18,80,35,57,18,24,57,35,11,16,24,108,23,65,75,50,63,80,45,40,29,21,40,35,33,24,41,125,47,22,22,43,100,61,39,19,10,21,8,29,39,7,31,16,57,34,17,51,17,25,18,46,48,42,16,8,22,18,12,10,2,47,41,29,5,1,10,24,11,19,21,23,17,6,33,9,5,27,2,28,42,25,27,33,23,3,31,40,32,28,29,20,17,5,5,17,32,31,40,50,56,35,23,31,4,15,6,8,17,20,16,25,6,27,19,7,6,6,12,36,27,11,34,17,17,11,13,16,36,6,15,18,9,23,18,5,22,10,2,28,24,3,14,44,22,24,32,23,13,15,29,18,5,18,28,20,41,27,35,25,35,58,24,10,16,23,32,18,23,19,17,7,54,20,40,26,20,16,38,16,25,22,30,19,55,28,49,21,65,33,14,30,48,54,20,74,46,47,13,55,33,43,71,57,32,59,91,121,94,48,42,89,81,114,94,144,171,99,154,136,604
2019-04-30,49,33,26,41,25,36,7,5,44,20,50,34,60,34,20,18,21,110,68,57,63,18,15,32,19,48,30,55,35,18,81,51,46,58,56,63,33,57,43,20,33,88,36,25,38,140,135,83,254,174,213,75,176,56,130,61,18,34,8,18,23,33,25,46,54,31,57,57,27,22,9,21,29,31,30,83,46,100,109,90,58,24,35,39,19,45,21,22,25,29,65,31,11,56,24,44,59,23,122,66,44,44,50,70,89,45,45,55,36,50,23,40,43,77,67,47,40,59,67,74,70,53,48,40,39,22,8,47,38,19,24,52,48,57,54,108,148,37,43,95,87,32,22,19,24,97,46,17,58,13,61,37,8,19,2,35,19,28,14,4,46,20,21,16,38,11,57,55,23,24,56,25,5,37,46,30,8,23,8,44,25,16,4,36,21,23,19,3,24,7,25,26,24,12,14,39,15,26,11,1,4,19,54,33,10,18,3,22,9,20,30,16,25,31,21,16,21,11,11,8,47,13,23,18,42,26,16,16,10,17,13,14,21,21,25,24,19,35,14,61,48,26,14,41,14,21,16,32,11,22,55,25,28,6,18,17,22,30,18,29,20,29,2,7,23,25,28,42,8,30,7,26,61,5,6,23,19,28,20,9,27,22,23,13,38,49,30,61,17,7,24,57,23,58,71,79,29,17,24,16,36,34,44,13,30,21,32,33,1,59,21,56,112,60,19,16,27,29,28,109,26,45,49,23,34,45,14,53,19,29,59,37,63,19,43,37,45,34,47,39,10,37,94,48,50,18,60,84,73,66,58,32,29,63,28,53,77,46,43,88,30,47,57,98,30,86,103,43,36,57,71,67,48,56,77,58,76,65,66,63,76,69,57,69,99,190,201,173,160,923
2019-05-01,22,30,7,84,68,68,61,65,43,76,71,59,159,50,109,98,106,122,86,84,57,94,42,12,24,31,30,18,21,16,73,57,50,72,28,24,55,50,89,56,57,23,45,34,21,76,176,235,53,85,43,127,39,40,68,14,57,69,57,73,104,74,46,27,23,22,22,28,13,17,83,42,44,21,22,29,38,35,54,11,39,22,18,52,53,44,37,53,90,86,90,75,105,185,259,105,129,88,98,77,130,36,54,33,332,94,71,44,94,7,74,31,42,36,27,190,75,30,57,62,71,74,55,26,42,68,119,65,169,79,71,98,95,105,89,92,65,84,170,86,32,63,81,68,58,32,56,104,39,68,46,26,21,26,16,26,54,53,31,47,30,80,57,50,25,57,14,16,24,41,39,68,32,26,52,30,30,37,28,28,13,11,30,63,59,36,31,39,12,17,62,22,35,44,46,24,49,49,119,58,91,69,82,61,153,186,100,92,37,33,78,37,46,73,23,12,55,39,48,67,23,59,81,19,14,33,19,22,40,24,35,62,93,59,15,12,37,51,46,15,53,14,52,33,19,22,34,111,79,46,30,32,28,28,36,36,21,76,26,20,51,21,19,32,9,6,35,28,9,37,48,15,21,48,44,55,17,91,45,18,39,67,42,10,32,6,45,28,42,26,39,48,35,26,25,34,103,79,47,106,82,133,91,53,33,42,21,29,30,52,61,42,44,59,47,31,27,42,41,50,69,34,81,32,29,40,33,47,41,19,37,31,34,38,47,48,56,28,57,31,25,21,42,43,24,54,34,69,22,47,22,41,42,38,46,35,96,90,57,49,61,71,63,73,42,77,106,64,71,87,75,139,60,64,68,110,106,120,122,90,258,115,116,168,171,251,165,247,314,837
2019-05-02,68,33,83,22,90,41,55,32,40,77,89,49,61,76,48,38,68,37,45,57,68,132,76,25,100,112,77,63,61,22,69,71,102,56,40,39,63,43,41,44,67,78,70,63,68,69,56,28,42,92,168,35,35,75,57,41,43,64,35,43,49,29,53,82,35,42,64,54,142,89,45,25,25,33,34,39,62,35,34,46,34,24,31,33,24,41,48,48,96,39,95,86,74,20,76,44,108,45,69,56,57,39,62,64,35,41,49,42,52,37,113,53,54,59,41,52,55,68,62,45,105,54,62,69,22,84,57,43,28,26,58,26,81,29,154,48,41,24,40,70,25,20,61,37,54,58,26,46,81,57,28,21,18,29,15,31,39,25,38,49,68,44,71,121,127,25,52,23,21,27,49,39,79,92,106,122,75,25,67,42,52,69,74,73,27,51,36,32,37,61,16,35,30,45,37,38,65,19,55,57,63,87,81,31,103,31,67,25,16,52,62,14,23,39,36,23,18,32,22,24,50,54,23,18,74,9,27,28,25,27,46,39,50,67,32,35,29,61,17,18,24,65,47,39,13,16,44,19,24,40,34,33,42,47,7,34,41,32,30,29,23,60,27,14,55,34,18,11,87,29,19,29,16,27,17,38,32,20,39,67,22,45,31,40,127,114,22,99,78,34,42,100,23,37,59,102,92,86,59,106,18,43,30,62,50,36,27,28,25,22,16,87,62,124,58,62,37,59,47,15,32,57,56,15,64,43,79,46,56,46,50,28,62,39,43,38,50,75,56,91,27,43,55,49,53,83,50,65,64,78,53,79,52,48,42,48,51,46,90,63,50,62,92,124,113,119,95,102,112,118,101,126,132,92,95,158,121,166,149,153,203,215,208,143,322,345,220,338,349,711
2019-05-03,117,223,97,162,140,365,303,186,79,70,118,117,55,73,149,136,86,110,194,134,60,75,171,95,52,100,75,23,54,124,253,53,183,174,171,187,131,104,79,165,44,56,85,161,89,85,52,107,134,274,154,54,80,94,110,152,142,226,283,182,186,144,63,106,127,280,163,65,172,75,90,205,219,122,65,138,164,100,76,151,263,94,78,80,96,81,59,132,110,66,120,96,132,134,44,67,98,45,102,77,109,75,169,152,43,169,89,159,69,99,53,42,54,50,71,65,54,46,42,36,67,35,33,62,78,35,19,78,21,43,83,27,86,28,29,59,84,94,61,58,43,26,44,46,61,14,30,33,41,58,40,26,76,39,24,53,26,17,48,17,25,20,51,45,37,93,22,79,37,34,23,27,35,33,42,33,32,57,34,39,42,35,26,73,33,73,36,38,22,18,37,22,23,46,13,50,36,25,48,3,22,41,54,30,78,59,117,27,13,42,4,48,21,52,29,19,34,31,112,27,28,13,34,39,47,64,57,58,83,46,60,25,43,22,9,63,97,132,22,41,52,44,55,34,36,32,59,47,25,21,31,32,26,49,53,19,21,54,31,222,109,24,20,22,77,33,61,33,41,31,30,39,19,58,37,26,40,45,30,65,45,25,48,54,39,77,41,50,42,10,34,27,118,48,19,86,32,43,32,33,32,13,45,19,46,24,52,50,20,28,31,70,41,35,47,34,107,46,49,48,20,32,39,93,22,77,50,99,33,18,39,28,39,51,45,15,41,79,19,41,57,61,16,18,103,36,52,31,50,55,61,49,46,66,24,66,19,88,76,55,112,63,133,60,91,93,78,106,115,134,182,45,160,110,87,237,315,131,132,176,168,137,211,199,213,421,334,389,434,1080
2019-05-06,31,24,45,43,29,78,66,17,35,51,72,42,30,39,31,35,39,54,29,53,46,46,45,63,43,88,92,37,75,40,51,37,12,72,44,19,41,64,54,50,44,35,28,54,20,160,36,20,35,25,38,38,29,40,44,31,34,43,29,16,28,10,25,33,26,50,6,27,41,11,41,8,12,44,10,23,17,34,71,39,45,27,56,89,15,52,32,39,23,19,28,52,2,24,42,21,9,40,47,46,20,32,28,12,33,28,21,30,14,28,11,23,34,24,15,16,19,55,8,16,51,40,22,35,29,10,24,38,16,22,32,21,17,20,35,24,22,30,28,23,30,34,32,17,19,20,20,26,36,28,9,26,21,20,30,14,15,79,18,16,17,10,18,15,20,6,24,34,17,21,15,17,33,9,27,28,16,26,19,21,34,27,7,26,4,47,16,38,10,41,16,9,9,28,9,29,25,7,23,17,20,50,25,110,80,43,38,35,12,21,24,10,47,10,25,27,22,14,26,39,61,6,14,21,23,33,20,31,24,8,22,12,7,13,21,23,25,43,26,36,39,20,15,38,28,22,10,15,24,35,26,17,26,38,21,31,31,23,28,9,30,42,13,33,43,27,43,16,29,30,2,21,34,44,5,34,30,22,42,48,46,24,29,52,58,28,35,48,21,25,23,30,37,17,33,24,18,45,27,41,32,39,20,130,59,43,144,19,17,40,33,17,40,14,48,24,39,21,39,24,33,49,19,36,32,34,59,32,43,25,35,42,30,24,67,63,26,57,56,31,18,69,50,44,53,55,42,40,72,38,29,67,25,37,33,77,77,42,74,61,109,66,73,91,65,61,97,157,111,81,77,106,156,97,100,92,101,116,104,101,116,126,138,138,188,162,231,199,291,641
2019-05-07,76,48,115,44,106,79,96,67,98,30,29,159,59,35,50,22,69,79,34,140,158,55,43,17,29,44,36,52,48,55,113,51,82,76,66,38,37,68,28,130,43,69,29,50,69,117,81,40,68,84,110,68,96,78,98,110,43,48,12,51,70,44,55,43,75,52,27,94,146,107,167,48,33,33,8,24,18,29,42,76,85,70,62,68,88,21,48,23,36,10,69,28,25,188,45,110,62,85,70,85,54,23,30,74,14,15,36,32,33,42,46,35,31,154,22,164,21,7,71,74,16,69,26,96,10,8,35,42,119,146,45,43,21,24,54,25,83,36,9,45,50,24,30,28,30,27,43,33,27,44,117,14,121,63,87,52,64,11,13,20,22,11,12,11,23,28,19,11,6,31,11,4,31,17,12,9,39,10,22,12,23,26,24,45,17,36,25,29,29,44,22,48,29,36,19,33,16,7,13,54,20,42,21,16,20,23,32,14,47,66,27,18,27,61,68,35,119,32,40,36,17,32,60,79,47,39,12,71,39,31,40,24,15,17,113,71,8,5,35,13,119,49,75,48,58,60,133,73,73,13,38,51,42,29,14,12,14,45,16,73,25,34,24,41,19,10,54,10,22,35,62,22,20,17,45,19,44,27,39,16,18,47,24,85,88,41,33,19,59,27,50,41,68,53,101,127,11,68,65,73,38,69,19,35,73,79,78,79,35,14,47,36,52,13,74,59,31,24,29,37,32,12,22,46,27,27,30,27,19,32,46,11,58,62,21,38,39,47,31,27,45,40,56,58,79,64,81,69,61,57,53,45,79,30,50,54,67,46,62,40,96,96,49,99,127,51,89,121,62,83,134,66,109,85,76,89,66,102,63,119,110,136,128,132,186,194,142,221,183,309
2019-05-08,54,19,27,27,29,118,81,45,43,31,57,127,76,100,19,63,29,120,110,106,89,27,114,49,45,27,39,42,33,42,47,20,105,77,39,30,51,30,39,44,40,26,61,16,32,15,32,42,37,34,74,104,49,16,63,50,61,31,24,16,91,52,115,134,53,75,88,40,34,48,52,16,44,78,42,18,65,61,66,55,94,16,35,27,53,72,46,68,64,130,92,50,65,131,32,55,70,31,41,49,36,28,61,73,63,47,68,23,55,25,23,54,16,18,28,32,19,76,42,45,32,16,40,132,37,48,52,51,24,25,28,43,41,58,92,37,33,33,29,20,30,21,53,33,53,35,54,37,18,52,78,45,23,53,27,27,33,28,19,36,21,28,61,74,49,41,52,37,35,52,44,32,40,66,16,20,20,26,62,29,31,24,22,36,15,25,38,27,21,20,20,52,25,25,19,37,26,53,61,27,53,8,35,21,20,60,15,53,26,21,18,23,35,25,11,19,53,33,14,13,18,40,11,13,15,13,25,35,33,13,22,13,30,7,26,34,18,11,14,24,27,22,12,19,20,19,35,38,6,37,20,16,19,23,14,41,18,9,11,25,8,33,21,30,23,29,21,14,27,36,25,23,32,21,22,10,22,14,41,39,26,22,18,19,13,20,30,27,19,7,29,14,40,26,43,24,47,28,4,57,54,25,40,34,23,53,53,40,23,51,22,47,38,52,45,44,30,43,42,34,33,28,39,37,26,47,45,38,58,37,34,43,38,48,64,27,45,51,17,56,20,44,15,43,72,27,43,61,21,45,18,71,25,33,31,35,46,41,53,61,44,58,45,87,60,58,68,82,64,65,58,132,101,60,97,100,91,156,91,97,153,165,136,138,150,264,221,231,253,463
2019-05-09,97,59,35,29,43,33,45,40,12,35,39,36,42,52,18,120,55,48,55,65,71,41,31,47,24,31,52,16,42,85,67,54,87,41,102,38,92,65,32,27,44,15,80,62,30,63,59,27,65,100,109,67,129,56,66,99,58,65,31,84,90,88,95,94,38,33,26,54,24,28,29,42,77,27,79,36,36,20,25,8,14,31,15,45,19,46,15,32,13,103,30,32,38,21,37,23,18,21,32,14,51,29,67,28,43,14,38,23,20,18,18,27,36,26,25,10,64,70,68,24,39,34,86,48,39,15,39,28,36,27,48,35,62,57,43,29,12,35,15,24,15,31,18,35,41,56,12,28,69,50,45,37,13,36,34,21,61,65,30,65,66,68,48,22,43,43,31,25,41,37,51,55,34,68,39,54,43,46,41,24,32,36,36,17,19,47,30,42,33,56,44,24,43,59,38,27,37,16,32,17,18,14,25,25,19,13,20,25,29,79,36,26,47,35,44,27,24,11,18,20,19,47,18,20,24,48,15,13,11,14,18,10,30,27,20,15,21,15,9,16,30,19,7,17,20,15,20,35,13,19,23,17,2,25,20,4,15,13,51,28,17,20,18,9,23,10,38,25,24,21,31,18,19,48,19,28,69,82,78,54,62,18,18,27,20,18,7,13,10,28,77,19,18,14,19,26,35,36,36,13,32,11,11,20,35,31,35,53,23,9,28,38,26,18,26,16,31,11,35,20,14,26,19,21,17,43,42,25,36,23,45,16,26,22,26,26,29,37,16,39,23,34,29,25,36,20,37,36,34,39,23,9,39,16,16,18,32,19,23,49,27,28,32,51,39,49,42,54,42,34,42,47,43,32,38,75,70,35,86,75,195,71,89,83,109,121,150,191,227,416
2019-05-10,16,25,61,40,30,29,11,8,15,3,18,40,59,39,39,19,13,11,33,22,41,19,44,79,64,38,31,49,33,55,102,41,74,42,27,29,38,37,44,24,24,19,29,22,30,40,28,22,17,27,25,11,13,27,16,24,16,16,4,14,17,9,32,6,5,8,17,2,11,19,28,41,27,18,12,58,42,31,33,37,20,17,23,12,83,32,52,29,27,33,19,16,78,19,29,28,18,6,3,69,40,135,76,24,19,13,12,16,29,22,8,71,43,20,16,12,13,20,31,41,61,46,13,55,17,15,19,13,42,9,12,17,17,39,27,27,34,10,44,18,16,35,14,38,52,42,38,21,33,32,40,45,37,13,6,21,10,16,19,4,6,21,23,5,10,31,41,18,9,5,10,27,11,12,12,7,46,26,34,15,42,21,24,19,24,6,8,10,12,23,10,14,21,4,7,6,2,15,6,14,22,21,11,9,8,4,18,14,5,18,17,13,19,23,18,8,12,4,8,8,18,17,9,14,14,4,18,46,43,4,32,9,22,11,11,16,15,9,6,32,12,18,47,3,7,11,8,9,19,4,15,11,11,10,45,10,20,8,41,4,17,10,7,8,3,7,10,2,23,27,50,48,31,42,19,17,14,11,24,20,17,18,28,13,30,63,26,18,2,40,38,40,75,70,50,81,24,25,9,12,11,19,14,7,18,24,30,20,28,27,5,13,17,7,13,15,15,28,10,2,32,39,20,12,14,15,5,22,5,90,63,20,26,18,15,11,11,11,12,60,14,16,8,11,32,9,31,23,11,30,17,60,35,24,4,30,19,18,21,26,46,63,51,33,38,26,34,31,36,23,34,27,53,185,33,33,49,66,50,131,98,146,194,155,216,190,203,151,230,354
2019-05-13,38,37,27,17,19,50,22,3,42,30,31,9,82,41,25,24,17,23,27,42,32,84,79,93,6,17,15,19,35,53,7,37,63,97,293,27,58,38,49,22,25,49,89,21,21,10,36,66,76,18,40,43,41,11,17,45,9,35,37,28,95,137,17,44,47,27,72,95,147,159,135,69,104,99,44,59,22,30,67,26,39,20,13,15,34,20,36,23,9,19,33,47,34,10,50,13,9,21,11,22,21,24,20,13,23,29,30,19,15,14,12,15,6,12,11,3,9,7,30,9,27,7,12,26,23,20,1,15,18,17,20,21,29,18,78,75,24,120,84,59,40,86,46,15,32,61,46,73,19,28,9,37,7,60,57,63,31,101,73,18,149,45,54,85,17,30,30,32,85,19,19,22,59,6,68,171,57,38,28,66,14,39,44,289,86,44,43,40,40,28,15,24,29,58,57,15,21,64,24,29,47,14,17,11,35,16,16,159,50,8,25,11,10,55,35,55,37,22,35,17,61,27,44,41,13,38,7,118,71,11,32,36,53,70,125,60,29,5,41,11,134,125,19,112,17,18,23,37,53,35,55,56,9,12,28,2,1,27,35,31,7,4,19,3,27,49,32,8,17,18,33,7,17,15,69,18,19,32,15,32,24,10,34,14,23,22,24,36,235,233,98,30,20,22,32,63,26,22,8,19,14,14,10,14,27,22,21,9,17,20,25,16,7,36,25,13,26,21,19,16,30,34,21,42,17,30,23,30,16,13,43,21,28,45,9,95,41,54,35,15,45,12,31,107,60,36,46,24,17,44,44,24,31,48,39,31,30,46,42,34,91,60,90,57,46,55,57,119,61,106,58,35,50,20,71,85,45,66,43,50,161,93,248,336,221,179,195,198,225,695
2019-05-14,5,17,22,27,25,61,20,13,25,7,23,4,25,19,31,19,74,17,48,58,8,23,30,31,5,29,7,11,17,16,41,42,67,61,108,41,75,58,96,23,15,20,98,8,22,34,28,20,36,28,33,13,37,10,17,7,20,13,59,36,35,32,27,39,27,34,15,9,15,13,5,13,7,11,6,3,11,14,15,31,20,6,26,4,16,21,8,12,30,22,24,11,9,16,25,22,38,48,12,16,18,20,17,17,26,25,47,61,33,29,28,46,27,55,20,31,13,15,37,22,5,22,26,21,24,25,23,17,28,17,32,30,28,24,6,32,28,19,30,7,22,13,7,31,24,21,47,6,14,54,11,23,15,40,19,22,39,23,9,28,35,26,11,9,24,31,48,43,29,4,20,42,12,15,36,12,16,20,9,13,38,9,24,16,29,5,15,22,17,31,12,26,4,27,23,20,9,15,3,5,19,8,6,25,11,7,9,19,13,9,13,8,25,17,9,25,19,33,7,9,25,7,34,35,29,17,33,11,18,7,19,11,65,32,26,6,8,11,20,2,10,2,9,9,10,9,11,4,29,16,14,17,43,17,10,4,15,6,15,25,16,8,4,5,0,4,12,7,15,13,26,10,16,5,37,10,14,13,69,29,20,36,10,16,10,8,14,14,52,15,21,11,11,8,14,8,14,39,16,15,25,40,25,14,25,17,26,41,28,12,17,22,12,36,14,11,50,23,28,42,15,43,41,50,29,30,36,24,26,26,28,17,10,24,14,17,14,26,31,44,8,31,13,25,38,13,28,10,35,35,21,23,10,35,14,12,11,28,22,26,45,44,31,34,84,37,41,53,36,37,39,55,27,32,38,70,68,45,24,62,94,132,48,83,60,117,95,155,206,460
2019-05-15,6,23,9,26,35,7,41,27,20,4,48,40,30,23,20,10,3,6,23,4,18,14,32,33,54,22,30,28,27,21,33,11,14,28,36,35,67,56,66,29,47,55,51,162,54,23,17,13,9,25,16,31,21,95,10,16,11,12,8,18,105,8,19,13,19,14,16,18,23,24,18,38,11,10,15,52,10,43,16,15,15,16,19,12,10,12,20,11,9,18,12,32,11,12,14,15,11,29,26,49,41,45,44,32,11,17,40,71,25,29,20,21,18,10,45,41,32,12,10,14,14,45,33,8,27,16,12,18,30,26,13,35,32,13,23,32,85,71,40,19,34,19,45,43,12,17,41,16,12,31,21,21,3,7,16,19,14,3,15,8,6,11,7,14,8,6,8,16,2,13,8,4,6,6,16,6,23,2,10,12,4,16,5,6,4,20,14,19,15,1,11,4,14,35,66,6,6,13,28,14,20,20,34,16,12,17,25,34,9,69,13,23,11,11,4,10,7,3,10,24,12,16,13,10,21,13,15,5,5,4,11,14,19,2,23,6,6,15,9,3,10,18,38,78,73,25,39,38,9,12,23,15,1,5,6,18,7,6,8,2,7,9,45,11,11,10,6,15,21,5,22,9,27,4,6,51,16,11,7,14,10,22,6,16,20,37,31,3,7,11,14,16,9,21,15,7,8,11,14,13,15,9,16,10,17,3,12,4,7,25,1,3,9,30,15,11,8,25,11,23,6,10,7,15,19,14,43,40,7,14,25,8,6,11,26,31,6,10,13,12,21,21,10,14,10,7,36,46,89,22,4,20,23,12,1,18,18,10,17,20,9,29,32,13,29,18,34,36,30,19,58,41,29,34,28,30,44,47,33,41,29,63,63,89,66,137,95,127,175,367
2019-05-16,21,25,6,28,19,16,17,13,13,17,13,15,15,42,215,202,27,45,56,37,17,54,21,27,23,46,51,13,29,30,48,20,74,40,17,14,19,18,29,7,19,7,21,2,19,6,14,21,7,31,32,15,22,21,61,28,9,14,8,3,19,11,11,21,12,10,27,14,1,7,28,8,0,22,16,12,9,9,7,37,81,59,18,6,9,5,5,14,30,11,122,45,114,63,32,6,13,36,21,9,22,42,7,17,7,9,18,17,26,21,26,41,22,7,37,47,56,9,30,30,24,19,23,45,50,27,39,11,15,10,28,36,7,9,8,5,7,7,17,21,7,12,10,21,13,16,61,42,16,22,1,19,18,5,4,10,9,8,6,21,6,5,9,12,18,6,7,8,6,7,17,6,2,2,11,12,10,5,12,5,16,1,11,10,17,12,13,23,10,13,9,8,20,7,6,8,8,4,8,12,3,21,8,4,12,8,7,14,12,27,7,19,9,10,5,23,13,4,15,15,4,16,25,20,1,7,15,1,19,6,6,15,8,4,8,6,7,7,4,8,20,14,9,0,5,37,7,10,9,28,23,17,24,7,13,7,11,31,8,31,19,8,13,9,7,13,7,2,25,17,10,11,70,18,21,8,12,24,6,17,3,15,9,12,14,14,3,17,2,9,36,16,2,3,11,8,14,28,23,16,15,12,17,18,6,10,19,8,8,4,20,6,19,10,9,16,8,20,10,5,17,30,50,7,17,8,23,62,19,4,30,17,15,21,17,17,13,29,62,8,11,8,24,11,10,37,6,37,2,18,32,12,24,23,44,54,78,73,16,102,39,69,51,52,19,29,34,37,26,30,21,52,63,45,33,51,61,61,69,38,120,39,88,63,63,146,121,140,175,371
2019-05-17,37,11,28,22,15,16,26,21,9,11,43,19,12,11,29,31,11,15,26,16,17,10,7,13,0,5,15,33,14,7,32,35,27,7,6,38,38,44,21,17,39,18,19,10,41,12,14,122,82,41,21,15,16,19,17,15,24,41,27,46,34,15,31,45,34,17,47,46,48,37,12,39,48,40,38,44,62,50,35,54,44,20,17,38,62,44,42,14,11,31,53,19,66,22,50,66,86,78,90,43,41,110,48,37,51,49,40,43,51,73,32,89,31,69,115,68,47,23,24,34,34,27,32,36,12,15,23,19,16,22,25,85,24,29,11,11,23,33,48,51,66,63,15,31,74,37,13,48,16,19,56,35,59,25,110,57,11,6,21,19,30,20,28,16,12,17,8,18,12,9,5,40,9,4,13,9,13,10,41,31,27,25,32,22,24,6,76,40,44,32,9,55,9,13,12,11,23,24,37,28,18,17,20,14,17,20,47,12,16,22,43,13,30,31,27,14,16,15,26,38,9,18,5,5,7,16,15,14,20,12,13,8,18,7,4,21,18,18,11,11,15,8,18,11,6,11,15,10,32,20,7,20,14,11,2,21,0,3,3,11,16,10,13,20,8,16,10,6,15,25,6,10,14,6,18,28,5,26,19,60,16,35,15,43,25,48,19,21,21,32,32,32,33,36,13,30,25,14,16,28,10,35,65,52,42,44,20,43,12,33,28,17,13,8,26,23,9,13,22,23,17,21,65,14,17,15,20,28,19,23,22,77,19,16,17,18,71,26,11,24,34,29,32,51,19,22,33,22,27,12,39,33,36,32,34,12,32,21,76,36,59,42,70,65,49,65,58,71,70,42,56,78,54,87,119,84,90,93,118,156,108,164,168,215,138,250,287,222,233,364
2019-05-20,8,1,48,22,59,76,43,21,46,25,34,8,12,6,9,20,18,29,30,10,37,7,7,23,9,8,11,15,16,6,29,16,8,8,18,7,26,15,13,33,12,14,8,40,6,13,47,39,11,35,31,34,14,37,16,32,35,11,11,17,13,20,13,60,121,28,28,29,31,22,16,12,6,13,35,28,33,34,10,21,12,9,15,25,20,8,7,18,30,16,7,17,25,25,19,13,15,29,23,12,16,16,10,6,9,9,39,53,62,42,19,17,8,28,30,6,43,24,30,1,25,7,23,18,67,29,24,43,73,93,17,8,3,13,7,9,25,6,7,20,5,19,5,15,2,10,7,3,3,2,6,6,17,8,3,10,5,9,7,8,38,7,9,16,7,9,47,9,11,19,4,15,7,3,3,20,5,2,12,19,1,34,7,5,3,20,7,15,7,12,4,3,12,15,17,1,4,12,8,10,6,4,5,13,13,1,19,3,7,1,20,21,15,7,5,3,6,8,5,9,4,16,5,9,29,13,13,5,1,11,17,5,7,4,13,24,32,7,19,20,3,40,26,12,4,6,6,2,61,27,6,2,5,11,38,38,11,5,26,3,11,17,9,14,11,8,10,11,8,13,2,4,10,2,6,3,3,3,6,3,3,4,8,4,10,18,4,8,11,6,18,4,3,30,5,22,7,8,5,11,7,37,30,5,35,9,11,5,0,16,9,3,28,7,0,17,1,26,19,20,24,3,0,9,27,5,38,20,18,5,12,7,6,11,10,5,43,28,9,15,7,14,34,23,45,10,43,85,13,18,4,10,11,5,16,25,11,17,26,24,37,41,53,36,35,85,79,57,22,55,32,25,12,49,32,69,52,35,37,39,53,56,100,80,116,155,159,254,237,525
2019-05-21,24,8,19,4,25,14,32,11,6,6,13,50,8,24,24,19,14,28,15,37,35,27,25,13,22,20,10,23,11,6,43,18,31,36,20,28,11,13,11,118,60,30,26,12,12,25,7,15,14,13,11,9,11,15,24,13,47,39,41,30,13,16,3,14,21,11,9,23,55,30,20,16,24,42,22,16,43,4,11,5,10,10,22,5,14,12,47,6,22,10,41,43,25,69,28,88,17,25,23,41,61,27,16,15,45,68,53,47,52,11,14,46,19,12,18,27,17,15,5,19,7,4,5,11,3,8,12,4,14,76,36,23,14,16,14,3,11,5,12,26,19,21,17,7,11,11,92,23,12,8,11,13,16,9,14,11,6,1,4,5,3,5,1,66,11,3,4,20,7,14,7,8,4,1,25,4,6,10,9,7,13,4,2,14,12,6,24,12,2,20,2,4,4,3,15,13,11,13,5,9,13,7,5,12,17,3,1,18,4,4,7,7,21,10,2,13,20,27,8,3,7,8,17,2,12,11,10,7,4,17,2,8,9,9,6,8,29,3,11,10,17,7,7,2,5,26,13,14,5,19,8,7,5,12,2,5,20,1,4,6,11,8,12,2,8,5,8,3,4,4,7,2,8,5,25,3,9,8,16,20,10,1,25,5,11,31,31,5,20,21,6,1,35,25,9,29,16,20,5,10,6,12,23,7,13,29,4,10,1,9,31,55,16,13,11,7,3,41,22,21,9,15,14,3,2,12,7,24,4,6,13,20,5,26,6,17,4,10,13,14,0,10,33,3,9,3,32,7,25,13,23,24,14,12,13,10,9,29,42,46,14,37,33,33,34,95,48,65,61,77,45,77,59,22,30,56,46,74,54,34,76,53,98,93,80,63,70,101,158,453
2019-05-22,7,21,11,13,23,42,18,33,4,24,2,35,18,9,9,19,18,17,12,44,14,14,14,13,57,76,17,10,25,29,9,34,11,16,13,11,15,13,8,0,5,28,31,22,56,150,85,23,15,17,33,15,13,13,43,11,17,16,27,31,77,13,28,96,8,26,25,40,12,23,29,67,22,4,20,42,16,34,13,6,49,7,39,9,18,8,11,23,18,83,25,40,60,59,31,39,43,36,56,65,32,57,33,89,159,70,45,65,18,10,35,24,36,22,28,36,16,12,15,24,12,8,21,75,51,21,64,67,27,30,32,8,34,15,20,29,16,9,22,12,31,46,16,35,27,25,18,33,33,72,41,42,16,19,25,17,12,9,5,7,30,22,116,9,11,42,30,16,18,11,12,12,5,4,34,20,18,8,13,9,22,18,12,10,4,1,37,57,28,39,24,16,13,2,15,3,29,9,6,2,26,22,3,25,53,3,9,37,8,12,22,8,21,12,46,20,8,1,13,22,9,6,5,7,10,14,4,8,7,14,13,18,11,6,18,9,35,8,34,11,20,3,4,6,13,6,13,7,5,4,101,19,13,21,50,26,7,15,13,7,15,5,9,25,13,26,7,13,6,16,9,15,22,10,12,28,10,28,10,9,8,35,14,6,24,9,26,19,13,20,25,8,13,34,16,44,61,39,17,29,20,18,24,9,24,28,29,5,18,24,16,21,23,9,4,25,42,37,13,17,29,23,44,43,12,39,22,19,41,24,26,37,13,31,6,71,32,20,28,49,13,28,23,29,52,27,19,24,52,10,23,23,19,30,20,38,27,45,18,62,63,32,58,33,12,34,65,41,45,60,19,22,32,41,31,57,92,39,54,87,150,111,98,89,89,145,162,192,200,612
2019-05-23,43,21,47,89,70,178,25,64,69,74,134,188,52,118,80,79,121,105,26,42,36,192,176,58,35,29,22,107,64,28,49,62,32,101,93,68,38,47,34,50,31,69,57,52,103,54,52,157,106,81,39,52,47,32,91,72,87,150,129,110,80,166,157,152,109,58,15,48,24,75,42,37,55,55,58,86,34,37,97,69,102,290,308,89,49,14,22,30,12,49,35,74,55,64,90,68,28,69,50,28,21,11,59,31,55,38,16,29,73,64,54,19,25,52,50,58,42,32,65,60,54,26,34,19,39,24,48,62,41,17,35,16,30,10,32,16,26,24,22,32,90,38,107,42,66,119,49,17,37,59,24,30,80,76,14,18,31,14,48,29,12,19,15,18,15,26,5,23,22,48,15,23,45,31,27,37,13,318,33,15,35,17,23,57,46,30,85,25,35,73,128,105,35,50,62,89,20,38,30,23,16,41,82,172,42,14,37,36,20,33,34,53,68,65,38,12,11,14,19,18,13,6,26,32,33,49,52,42,53,33,30,40,77,18,14,25,13,14,24,23,13,28,11,4,13,11,29,14,31,34,9,19,4,26,28,24,96,48,33,75,43,49,40,23,49,36,32,36,18,15,33,74,41,5,42,18,17,50,48,37,28,44,20,36,18,21,16,42,11,19,12,48,9,38,50,37,51,55,46,36,52,45,73,14,35,16,47,13,47,16,21,52,27,45,27,28,25,43,31,18,28,32,11,112,7,31,29,26,21,22,13,24,49,26,28,24,11,22,32,27,9,17,63,32,14,28,28,16,47,35,34,34,24,36,25,17,12,34,21,29,127,41,80,46,104,139,72,66,85,59,105,53,110,156,138,162,90,101,93,76,122,110,150,139,121,165,139,180,262,342
2019-05-24,27,29,19,19,38,32,41,29,20,19,8,23,17,17,12,17,11,64,33,33,8,65,13,18,25,9,50,28,11,12,10,25,74,41,35,54,16,44,24,33,13,29,71,51,124,30,10,77,74,20,31,24,46,60,53,23,42,45,60,19,24,22,19,18,17,26,17,11,30,14,14,23,9,77,27,6,19,17,20,14,28,19,5,29,24,23,19,3,36,42,33,82,88,192,67,208,301,95,51,38,48,54,45,43,24,43,25,21,27,23,56,65,79,133,52,141,15,27,30,110,86,64,34,54,49,72,26,23,35,52,76,49,37,22,29,28,28,20,42,22,27,15,21,18,12,39,15,35,29,44,55,68,23,19,22,19,18,33,18,57,20,20,14,30,31,90,45,25,61,27,59,31,23,50,21,42,42,43,185,178,106,56,28,35,29,25,0,42,11,40,14,58,28,38,25,11,13,54,92,32,6,7,19,10,14,17,19,34,47,40,42,17,61,48,18,26,18,53,56,57,12,56,24,22,59,109,217,126,57,30,48,61,41,112,55,54,22,20,19,32,38,26,15,10,23,47,13,12,11,60,4,21,19,31,8,34,17,19,11,20,25,57,81,17,15,55,17,19,22,33,25,40,12,21,19,16,17,13,27,25,7,32,32,28,15,27,63,15,65,39,88,26,25,32,52,57,9,22,34,7,17,25,18,16,54,45,14,41,53,47,40,43,49,56,60,46,41,16,42,27,44,23,39,33,33,36,26,53,28,59,60,99,44,39,19,65,34,24,8,42,34,48,71,56,70,94,98,22,68,99,29,45,47,67,40,52,54,30,80,99,96,98,79,93,90,64,85,94,73,151,71,72,48,43,70,47,72,193,140,81,106,102,144,93,169,187,168,162,224,609
2019-05-28,26,31,20,23,28,52,37,53,36,37,33,13,31,28,39,10,30,26,10,28,23,36,16,13,25,8,23,52,13,62,47,123,51,33,30,11,69,28,21,38,24,19,3,22,53,19,31,16,23,29,16,30,24,25,15,33,32,34,56,28,25,58,49,33,27,53,58,51,11,74,16,46,58,91,58,27,29,63,55,43,33,26,51,26,20,25,19,20,17,28,36,64,31,17,26,6,17,60,33,40,26,20,38,30,56,21,11,33,25,6,22,14,22,18,16,26,18,40,25,48,51,23,11,17,19,23,12,16,26,17,28,13,22,20,10,10,4,5,15,13,22,8,16,17,23,23,19,12,26,50,30,41,8,12,20,4,13,10,3,12,6,12,4,26,19,7,0,1,39,46,13,8,35,11,24,13,6,11,6,15,17,40,23,45,8,18,11,12,6,57,4,10,31,2,28,30,22,9,32,30,19,17,3,17,14,24,2,20,10,22,24,8,21,56,17,21,35,4,28,9,11,9,17,32,25,13,27,21,29,8,46,14,23,16,12,26,21,71,18,21,29,24,19,9,50,4,42,24,16,24,40,39,21,12,22,18,20,30,43,35,40,47,18,48,54,26,43,26,41,27,30,28,30,19,38,15,51,24,12,12,23,22,12,40,38,21,21,27,15,21,16,9,20,28,37,41,27,26,16,24,56,30,8,31,23,20,13,25,14,32,21,13,27,46,25,16,21,10,28,12,16,17,25,40,46,18,6,27,27,17,22,9,26,42,37,7,16,27,24,19,33,41,30,11,7,14,17,21,23,14,25,17,56,32,9,18,8,61,40,24,73,36,67,20,45,49,35,98,34,36,102,57,92,102,32,90,54,75,70,62,208,166,91,104,98,120,165,182,261,328
2019-05-29,59,16,40,118,40,64,112,42,22,19,58,61,48,34,65,32,21,56,47,127,132,74,57,96,87,107,72,67,37,52,88,33,48,43,71,30,18,11,35,83,27,20,18,36,33,30,29,29,52,75,46,89,55,39,76,60,65,95,87,111,77,45,34,60,55,60,60,63,82,45,62,58,54,48,104,120,95,40,75,84,57,31,22,44,29,65,26,20,51,59,43,123,180,85,60,48,19,92,191,53,34,38,16,7,8,74,38,39,21,103,57,46,23,54,55,127,18,30,18,44,119,117,97,43,66,50,66,46,38,26,57,59,53,71,55,59,46,41,37,57,108,18,40,39,25,23,25,15,14,27,46,31,32,48,10,59,49,30,18,9,40,59,55,60,36,36,34,33,40,62,52,47,123,37,53,20,31,27,22,17,22,40,18,199,36,26,68,21,45,25,37,15,25,30,26,60,46,41,27,60,25,18,18,19,42,19,30,40,89,27,73,63,25,17,25,34,33,21,45,78,29,15,22,17,26,29,53,10,20,46,40,28,18,46,68,8,5,63,24,26,26,28,25,14,27,54,8,18,18,11,12,17,8,19,7,20,53,19,14,22,44,20,23,25,14,7,20,18,21,14,12,10,15,18,20,24,23,16,20,30,12,19,27,42,24,28,42,20,22,14,17,16,28,17,16,30,12,25,12,23,19,41,12,16,29,38,8,115,85,33,36,49,39,72,18,17,13,20,11,16,17,28,22,9,17,24,24,52,26,50,63,120,55,99,89,20,18,19,23,20,20,17,23,25,20,28,26,40,15,24,57,33,47,30,49,33,89,78,26,44,42,51,45,38,92,62,58,45,54,35,42,44,56,88,64,88,94,81,64,72,138,115,92,91,91,199,163,209,258,657
2019-05-30,2,4,108,21,19,23,8,23,26,13,10,17,6,8,16,15,23,18,10,26,38,12,25,43,30,53,74,17,13,23,18,14,39,4,11,21,8,24,7,4,8,15,25,9,23,6,38,4,68,5,14,21,23,7,41,25,16,45,16,6,16,32,3,21,26,12,26,24,25,17,24,14,54,11,13,22,8,9,20,18,80,30,56,63,29,103,94,170,49,22,63,149,131,44,79,16,82,55,77,35,58,45,33,75,59,57,36,44,29,34,95,36,61,20,24,42,133,61,20,15,35,33,38,33,17,33,50,67,42,12,28,57,39,11,6,22,6,7,37,153,38,51,49,14,25,28,24,14,28,25,24,18,10,25,26,16,36,29,24,15,15,7,9,3,19,29,16,7,29,17,15,16,38,10,12,26,31,21,16,18,14,34,9,11,22,23,11,30,27,24,42,20,9,8,17,6,14,17,15,18,29,21,16,31,12,35,19,34,32,12,40,12,17,6,36,67,47,12,28,33,15,22,28,17,21,26,31,8,9,9,11,6,14,28,12,33,17,18,60,32,91,33,23,27,19,32,41,37,18,34,25,30,18,32,13,19,17,36,7,17,56,27,51,18,59,74,48,15,12,13,22,10,21,15,4,7,22,8,13,24,13,10,11,23,27,22,27,17,19,19,33,54,17,17,78,32,18,8,11,16,11,27,30,24,31,12,17,37,13,12,22,21,10,11,29,18,16,37,13,20,12,27,7,32,8,12,8,15,8,25,30,27,45,30,17,27,95,60,53,20,34,25,32,41,80,30,38,64,18,62,27,23,19,31,29,35,28,41,66,23,30,46,46,55,32,87,73,65,68,48,70,108,48,79,54,73,78,47,74,86,131,120,85,138,145,169,213,252,327,333
2019-05-31,194,223,192,77,62,37,76,141,74,64,180,36,63,25,48,32,93,61,31,74,41,16,23,40,71,28,46,32,45,68,104,30,56,50,95,39,32,26,17,21,31,45,52,31,70,30,29,41,21,16,25,66,41,30,62,123,17,47,27,34,27,54,19,76,143,80,151,55,98,65,23,28,95,82,185,34,65,41,63,110,67,42,50,35,50,39,73,36,18,14,59,25,54,85,39,36,37,41,46,43,45,35,43,31,20,93,51,28,25,52,34,61,76,29,108,34,18,31,54,24,110,51,116,54,72,33,99,61,71,54,71,11,64,72,34,52,33,13,13,32,48,24,12,25,13,36,38,13,19,33,19,54,47,27,4,26,44,7,18,18,19,18,39,33,30,27,14,14,16,9,14,29,35,59,16,16,26,19,45,15,37,21,11,15,24,12,12,14,18,19,19,21,8,22,25,4,9,15,28,34,17,11,4,18,13,18,36,9,34,6,13,12,25,11,9,18,18,15,31,23,36,30,58,23,10,38,18,15,19,9,27,19,20,16,15,15,15,19,14,9,11,15,18,14,22,20,27,11,16,5,17,12,27,27,16,21,13,26,18,8,26,27,27,11,11,21,46,9,17,8,36,24,23,48,36,35,15,33,22,13,23,37,36,16,50,55,95,54,13,26,38,44,52,21,32,57,25,38,31,29,64,62,20,71,43,46,44,38,44,20,38,63,44,44,46,38,28,31,16,35,48,16,19,63,52,35,30,45,30,38,29,33,30,28,30,20,42,23,65,68,59,50,30,26,23,38,37,34,15,50,25,31,32,30,27,41,23,26,51,44,31,93,77,33,58,71,71,27,89,75,49,68,114,68,72,57,87,226,273,125,109,137,131,167,139,243,187,236,359,1175
