,09:30,09:31,09:32,09:33,09:34,09:35,09:36,09:37,09:38,09:39,09:40,09:41,09:42,09:43,09:44,09:45,09:46,09:47,09:48,09:49,09:50,09:51,09:52,09:53,09:54,09:55,09:56,09:57,09:58,09:59,10:00,10:01,10:02,10:03,10:04,10:05,10:06,10:07,10:08,10:09,10:10,10:11,10:12,10:13,10:14,10:15,10:16,10:17,10:18,10:19,10:20,10:21,10:22,10:23,10:24,10:25,10:26,10:27,10:28,10:29,10:30,10:31,10:32,10:33,10:34,10:35,10:36,10:37,10:38,10:39,10:40,10:41,10:42,10:43,10:44,10:45,10:46,10:47,10:48,10:49,10:50,10:51,10:52,10:53,10:54,10:55,10:56,10:57,10:58,10:59,11:00,11:01,11:02,11:03,11:04,11:05,11:06,11:07,11:08,11:09,11:10,11:11,11:12,11:13,11:14,11:15,11:16,11:17,11:18,11:19,11:20,11:21,11:22,11:23,11:24,11:25,11:26,11:27,11:28,11:29,11:30,11:31,11:32,11:33,11:34,11:35,11:36,11:37,11:38,11:39,11:40,11:41,11:42,11:43,11:44,11:45,11:46,11:47,11:48,11:49,11:50,11:51,11:52,11:53,11:54,11:55,11:56,11:57,11:58,11:59,12:00,12:01,12:02,12:03,12:04,12:05,12:06,12:07,12:08,12:09,12:10,12:11,12:12,12:13,12:14,12:15,12:16,12:17,12:18,12:19,12:20,12:21,12:22,12:23,12:24,12:25,12:26,12:27,12:28,12:29,12:30,12:31,12:32,12:33,12:34,12:35,12:36,12:37,12:38,12:39,12:40,12:41,12:42,12:43,12:44,12:45,12:46,12:47,12:48,12:49,12:50,12:51,12:52,12:53,12:54,12:55,12:56,12:57,12:58,12:59,13:00,13:01,13:02,13:03,13:04,13:05,13:06,13:07,13:08,13:09,13:10,13:11,13:12,13:13,13:14,13:15,13:16,13:17,13:18,13:19,13:20,13:21,13:22,13:23,13:24,13:25,13:26,13:27,13:28,13:29,13:30,13:31,13:32,13:33,13:34,13:35,13:36,13:37,13:38,13:39,13:40,13:41,13:42,13:43,13:44,13:45,13:46,13:47,13:48,13:49,13:50,13:51,13:52,13:53,13:54,13:55,13:56,13:57,13:58,13:59,14:00,14:01,14:02,14:03,14:04,14:05,14:06,14:07,14:08,14:09,14:10,14:11,14:12,14:13,14:14,14:15,14:16,14:17,14:18,14:19,14:20,14:21,14:22,14:23,14:24,14:25,14:26,14:27,14:28,14:29,14:30,14:31,14:32,14:33,14:34,14:35,14:36,14:37,14:38,14:39,14:40,14:41,14:42,14:43,14:44,14:45,14:46,14:47,14:48,14:49,14:50,14:51,14:52,14:53,14:54,14:55,14:56,14:57,14:58,14:59,15:00,15:01,15:02,15:03,15:04,15:05,15:06,15:07,15:08,15:09,15:10,15:11,15:12,15:13,15:14,15:15,15:16,15:17,15:18,15:19,15:20,15:21,15:22,15:23,15:24,15:25,15:26,15:27,15:28,15:29,15:30,15:31,15:32,15:33,15:34,15:35,15:36,15:37,15:38,15:39,15:40,15:41,15:42,15:43,15:44,15:45,15:46,15:47,15:48,15:49,15:50,15:51,15:52,15:53,15:54,15:55,15:56,15:57,15:58,15:59
2019-04-01,96.23,96.2,96.12,95.84,96.0,95.97,96.35,96.175,96.14,96.35,96.3,96.32,96.3,96.2,96.035,96.01,95.82,95.885,95.87,95.79,95.87,95.96,96.18,96.3,96.3,96.18,96.04,96.035,95.97,95.92,96.075,96.24,96.205,96.34,96.46,96.48,96.465,96.43,96.4,96.26,96.22,96.13,96.255,96.28,96.19,96.19,96.15,96.14,96.1,96.11,96.155,96.17,96.17,96.17,96.14,96.13,96.05,96.01,95.99,96.139,96.166,96.13,96.14,96.13,96.13,96.15,96.29,96.4,96.48,96.48,96.35,96.3,96.28,96.25,96.252,96.26,96.31,96.39,96.35,96.5,96.47,96.44,96.39,96.37,96.4,96.4,96.53,96.57,96.53,96.49,96.542,96.64,96.67,96.89,96.75,96.66,96.63,96.59,96.49,96.535,96.54,96.59,96.65,96.59,96.61,96.601,96.63,96.56,96.67,96.63,96.59,96.47,96.42,96.337,96.37,96.38,96.43,96.454,96.36,96.43,96.39,96.4,96.31,96.24,96.33,96.36,96.29,96.19,96.18,96.12,96.15,96.15,96.05,95.97,95.98,96.02,96.01,96.11,96.09,96.082,96.09,96.09,96.12,96.26,96.29,96.24,96.27,96.28,96.38,96.36,96.36,96.26,96.275,96.28,96.34,96.34,96.3,96.27,96.231,96.19,96.22,96.26,96.24,96.27,96.24,96.29,96.29,96.33,96.29,96.25,96.3,96.35,96.35,96.48,96.54,96.46,96.46,96.41,96.46,96.47,96.47,96.5,96.5,96.5,96.5,96.517,96.52,96.47,96.48,96.56,96.55,96.57,96.54,96.51,96.54,96.59,96.58,96.65,96.67,96.644,96.56,96.62,96.61,96.71,96.71,96.61,96.53,96.65,96.72,96.78,96.74,96.69,96.691,96.71,96.762,96.74,96.7,96.69,96.75,96.83,96.814,96.78,96.814,96.792,96.79,96.8,96.79,96.76,96.72,96.75,96.708,96.7,96.69,96.73,96.72,96.71,96.717,96.76,96.77,96.79,96.83,96.847,96.85,96.91,96.92,96.93,96.87,96.84,96.77,96.8,96.83,96.85,96.84,96.82,96.8,96.83,96.88,96.91,96.85,96.89,96.9,96.95,97.0,96.98,96.99,96.97,96.93,96.92,96.935,96.92,96.96,96.95,96.935,96.87,96.86,96.9,96.91,96.94,96.96,97.025,97.04,97.09,97.08,97.039,97.09,97.14,97.11,97.1,97.14,97.15,97.13,97.04,97.05,97.01,97.04,96.99,96.9,96.89,96.85,96.85,96.87,96.86,96.92,96.88,96.94,97.0,96.97,97.045,97.01,97.03,97.01,97.01,96.92,96.9,96.89,96.89,96.89,96.84,96.87,96.92,96.9,96.93,96.88,96.83,96.82,96.87,96.89,96.97,96.94,96.92,96.92,96.98,96.94,96.92,96.94,96.9,96.88,96.87,96.87,96.85,96.85,96.81,96.75,96.78,96.784,96.756,96.82,96.86,96.9,96.88,96.89,96.92,96.94,96.91,96.99,96.97,96.87,96.87,96.89,96.89,96.82,96.786,96.84,96.81,96.785,96.75,96.82,96.91,96.91,96.88,96.85,96.91,96.93,96.97,97.025,96.99,96.92,96.93,96.95,96.955,96.965,96.92,97.02,96.975,97.005,97.01,97.06,97.07,97.05,97.05
2019-04-02,97.24,97.322,97.35,97.47,97.29,97.2,97.27,97.375,97.4,97.6,97.45,97.33,97.12,97.14,97.29,97.31,97.06,97.015,97.07,97.01,96.99,97.04,96.93,97.02,97.05,97.11,97.27,97.38,97.45,97.47,97.67,97.635,97.69,97.605,97.57,97.69,97.665,97.53,97.69,97.55,97.5,97.442,97.36,97.37,97.53,97.63,97.55,97.53,97.57,97.6,97.65,97.77,97.73,97.69,97.665,97.55,97.5,97.5,97.51,97.48,97.48,97.52,97.49,97.49,97.5,97.515,97.44,97.41,97.355,97.212,97.13,97.2,97.16,97.18,97.26,97.19,97.04,97.06,97.09,97.08,97.02,96.96,96.95,96.971,96.98,96.85,96.79,96.74,96.735,96.72,96.67,96.68,96.52,96.51,96.58,96.65,96.68,96.56,96.68,96.57,96.6,96.62,96.65,96.59,96.38,96.25,96.38,96.51,96.51,96.51,96.58,96.6,96.68,96.73,96.74,96.685,96.68,96.68,96.58,96.71,96.73,96.73,96.62,96.62,96.78,96.76,96.7,96.63,96.52,96.562,96.585,96.72,96.68,96.75,96.73,96.73,96.7,96.75,96.73,96.63,96.74,96.8,96.83,96.86,96.9,96.93,96.92,96.85,96.95,96.915,96.86,96.87,96.9,96.865,96.92,96.91,96.93,96.92,96.94,96.9,96.86,96.87,96.84,96.82,96.75,96.73,96.7,96.66,96.69,96.69,96.66,96.66,96.71,96.7,96.69,96.65,96.63,96.61,96.45,96.495,96.5,96.46,96.52,96.45,96.49,96.5,96.57,96.54,96.54,96.6,96.55,96.56,96.585,96.58,96.58,96.55,96.48,96.45,96.39,96.41,96.47,96.43,96.45,96.46,96.532,96.55,96.52,96.49,96.55,96.525,96.5,96.475,96.53,96.46,96.45,96.43,96.48,96.52,96.69,96.73,96.66,96.62,96.61,96.61,96.68,96.61,96.61,96.55,96.561,96.632,96.64,96.64,96.68,96.65,96.58,96.59,96.57,96.54,96.51,96.51,96.49,96.48,96.44,96.42,96.47,96.52,96.53,96.54,96.56,96.54,96.5,96.51,96.499,96.48,96.43,96.44,96.395,96.35,96.31,96.27,96.24,96.27,96.35,96.32,96.4,96.47,96.44,96.39,96.36,96.346,96.38,96.39,96.38,96.45,96.52,96.55,96.53,96.54,96.48,96.48,96.455,96.49,96.51,96.455,96.45,96.4,96.38,96.35,96.37,96.33,96.31,96.27,96.26,96.19,96.27,96.27,96.26,96.24,96.3,96.299,96.3,96.28,96.34,96.32,96.28,96.31,96.31,96.33,96.27,96.3,96.34,96.355,96.37,96.34,96.34,96.35,96.36,96.33,96.3,96.245,96.23,96.27,96.23,96.19,96.1,96.06,96.09,96.16,96.23,96.23,96.23,96.3,96.29,96.34,96.33,96.39,96.31,96.29,96.27,96.21,96.24,96.26,96.26,96.305,96.36,96.31,96.28,96.28,96.33,96.31,96.27,96.24,96.17,96.28,96.27,96.26,96.195,96.225,96.17,96.17,96.22,96.22,96.225,96.25,96.26,96.3,96.31,96.35,96.38,96.39,96.35,96.38,96.4,96.37,96.35,96.28,96.35,96.34,96.37,96.34,96.32,96.32,96.285,96.26,96.315,96.31,96.215,96.19,96.21,96.16
2019-04-03,96.65,96.38,96.24,96.185,96.04,96.26,96.43,96.47,96.38,96.19,96.15,96.04,96.11,96.14,96.17,96.18,96.25,96.32,96.18,96.15,96.24,96.18,95.99,95.95,96.0,96.02,96.0,95.87,95.87,95.84,95.76,95.665,95.68,95.645,95.56,95.53,95.458,95.58,95.64,95.705,95.87,95.89,95.87,95.86,95.84,95.97,96.08,96.13,96.16,96.073,96.21,96.1,96.07,96.15,96.085,96.17,96.05,95.99,95.86,95.845,95.79,95.71,95.59,95.67,95.73,95.69,95.62,95.635,95.65,95.67,95.98,95.99,96.0,96.0,95.94,96.075,96.03,96.04,96.04,95.98,96.08,96.04,96.19,96.252,96.25,96.29,96.25,96.095,96.147,96.13,96.043,96.168,96.18,96.25,96.25,96.32,96.26,96.1,96.11,96.073,96.09,96.07,95.965,95.85,95.86,95.81,95.7,95.71,95.77,95.73,95.64,95.554,95.58,95.57,95.52,95.505,95.5,95.39,95.48,95.5,95.47,95.478,95.47,95.442,95.41,95.44,95.35,95.34,95.3,95.33,95.35,95.3,95.24,95.2,95.18,95.23,95.2,95.15,95.21,95.24,95.33,95.35,95.41,95.38,95.42,95.45,95.44,95.52,95.48,95.4,95.43,95.5,95.47,95.49,95.51,95.57,95.51,95.53,95.67,95.64,95.66,95.58,95.47,95.34,95.34,95.42,95.44,95.49,95.46,95.47,95.44,95.39,95.43,95.42,95.49,95.47,95.47,95.47,95.39,95.3,95.36,95.37,95.37,95.34,95.23,95.14,95.16,95.15,95.17,95.19,95.21,95.21,95.21,95.11,95.06,94.95,94.89,94.935,94.925,94.87,94.87,94.915,94.87,94.865,94.8,94.79,94.814,94.77,94.74,94.7,94.65,94.7,94.76,94.78,94.78,94.735,94.76,94.73,94.67,94.81,94.81,94.76,94.72,94.665,94.63,94.62,94.59,94.58,94.56,94.56,94.56,94.6,94.62,94.64,94.644,94.59,94.58,94.6,94.63,94.6,94.575,94.53,94.53,94.57,94.57,94.57,94.52,94.57,94.55,94.52,94.5,94.44,94.38,94.37,94.39,94.38,94.36,94.35,94.39,94.39,94.31,94.305,94.26,94.27,94.26,94.26,94.21,94.155,94.11,94.13,94.21,94.13,94.09,94.0,94.03,94.02,94.005,93.95,93.92,93.96,93.96,93.94,93.92,93.82,93.82,93.86,93.89,93.87,93.85,93.82,93.85,93.94,93.97,94.01,94.045,94.07,94.09,94.13,94.21,94.25,94.21,94.22,94.23,94.22,94.22,94.22,94.26,94.27,94.3,94.3,94.24,94.29,94.3,94.212,94.17,94.22,94.21,94.22,94.22,94.225,94.25,94.32,94.35,94.41,94.42,94.39,94.375,94.37,94.36,94.355,94.31,94.36,94.37,94.35,94.365,94.385,94.37,94.35,94.33,94.29,94.26,94.245,94.2,94.19,94.21,94.2,94.21,94.23,94.27,94.32,94.23,94.16,94.26,94.25,94.23,94.25,94.28,94.33,94.39,94.43,94.4,94.37,94.415,94.36,94.42,94.365,94.355,94.39,94.33,94.33,94.36,94.345,94.375,94.38,94.41,94.395,94.39,94.325,94.33,94.355,94.37,94.31,94.28,94.17,94.02,94.08,94.01,94.01,93.93,93.96
2019-04-04,94.18,94.0,93.917,94.139,94.22,94.48,94.5,94.26,94.324,94.45,94.4,94.46,94.31,94.199,94.2,94.07,93.99,93.8,93.84,93.75,93.83,93.9,93.93,94.02,94.06,93.88,93.81,93.67,93.7,93.69,93.665,93.7,93.63,93.65,93.62,93.56,93.58,93.59,93.57,93.53,93.52,93.51,93.56,93.58,93.49,93.47,93.52,93.51,93.61,93.56,93.555,93.65,93.68,93.67,93.65,93.6,93.58,93.54,93.52,93.55,93.31,93.31,93.305,93.26,93.23,93.17,93.1,93.1,93.06,93.04,93.04,93.01,92.97,93.035,93.2,93.28,93.295,93.24,93.32,93.355,93.31,93.31,93.3,93.22,93.2,93.2,93.125,93.11,93.11,93.1,93.09,93.04,93.15,93.14,93.2,93.22,93.3,93.332,93.32,93.362,93.26,93.39,93.42,93.46,93.43,93.38,93.33,93.255,93.23,93.25,93.13,93.055,93.07,93.075,93.16,93.31,93.34,93.37,93.405,93.39,93.37,93.31,93.23,93.31,93.31,93.36,93.5,93.62,93.64,93.72,93.68,93.62,93.7,93.69,93.72,93.73,93.79,93.79,93.79,93.82,93.76,93.73,93.74,93.8,93.75,93.73,93.755,93.7,93.75,93.8,93.81,93.83,93.73,93.76,93.73,93.75,93.74,93.73,93.71,93.73,93.625,93.57,93.54,93.505,93.47,93.37,93.32,93.25,93.26,93.37,93.52,93.505,93.63,93.67,93.58,93.55,93.52,93.55,93.54,93.57,93.53,93.61,93.55,93.51,93.455,93.61,93.55,93.53,93.5,93.495,93.49,93.47,93.51,93.55,93.64,93.559,93.5,93.51,93.52,93.63,93.62,93.64,93.65,93.7,93.69,93.73,93.72,93.7,93.69,93.65,93.63,93.61,93.57,93.51,93.45,93.52,93.515,93.504,93.536,93.51,93.47,93.51,93.535,93.53,93.48,93.48,93.49,93.5,93.57,93.63,93.63,93.61,93.56,93.6,93.59,93.55,93.55,93.59,93.63,93.6,93.61,93.68,93.683,93.69,93.64,93.65,93.73,93.7,93.68,93.705,93.66,93.64,93.63,93.59,93.62,93.64,93.63,93.685,93.64,93.52,93.57,93.61,93.605,93.75,93.765,93.73,93.68,93.755,93.77,93.675,93.64,93.64,93.64,93.63,93.605,93.62,93.66,93.67,93.67,93.81,93.79,93.69,93.69,93.68,93.71,93.69,93.7,93.7,93.68,93.69,93.672,93.685,93.72,93.65,93.63,93.56,93.6,93.6,93.6,93.5,93.49,93.53,93.64,93.69,93.65,93.69,93.76,93.73,93.73,93.67,93.69,93.66,93.65,93.57,93.56,93.53,93.51,93.48,93.46,93.41,93.33,93.32,93.39,93.43,93.46,93.445,93.445,93.43,93.39,93.38,93.48,93.465,93.44,93.4,93.38,93.5,93.49,93.435,93.4,93.41,93.47,93.547,93.55,93.53,93.46,93.48,93.54,93.55,93.55,93.5,93.51,93.52,93.46,93.5,93.544,93.53,93.47,93.46,93.475,93.45,93.48,93.44,93.435,93.5,93.51,93.52,93.52,93.57,93.59,93.55,93.56,93.55,93.56,93.49,93.49,93.56,93.64,93.66,93.65,93.64,93.64,93.64,93.61,93.67,93.65,93.63,93.61,93.65,93.61,93.68
2019-04-05,94.45,94.68,94.97,94.9,94.8,94.7,94.74,94.76,94.77,94.726,94.7,94.74,94.69,94.71,94.68,94.85,95.18,95.23,95.32,95.37,95.47,95.53,95.51,95.39,95.35,95.24,95.3,95.4,95.54,95.55,95.6,95.61,95.77,95.75,95.78,96.0,96.05,96.14,96.32,96.31,96.28,96.32,96.315,96.29,96.31,96.38,96.36,96.38,96.47,96.53,96.6,96.59,96.6,96.62,96.62,96.64,96.64,96.605,96.475,96.54,96.49,96.54,96.69,96.62,96.63,96.6,96.69,96.73,96.725,96.65,96.61,96.58,96.68,96.64,96.72,96.77,96.81,96.886,96.92,96.88,96.91,96.99,97.09,97.08,97.07,97.12,97.2,97.1,97.11,97.16,97.1,97.105,97.13,97.15,97.07,96.95,97.07,97.115,97.19,97.22,97.16,97.25,97.36,97.49,97.47,97.44,97.46,97.49,97.45,97.45,97.72,97.655,97.65,97.6,97.57,97.52,97.35,97.195,97.12,97.15,97.09,97.09,96.99,96.97,96.85,96.865,97.03,97.02,96.99,96.98,97.0,97.13,97.13,97.1,97.17,97.23,97.18,97.205,97.12,97.13,97.105,97.07,97.13,97.19,97.27,97.24,97.2,97.15,97.125,97.1,97.14,97.19,97.17,97.1,97.12,97.1,97.09,97.08,97.13,97.13,97.142,97.185,97.175,97.19,97.16,97.22,97.23,97.19,97.23,97.21,97.28,97.28,97.28,97.24,97.28,97.33,97.34,97.36,97.37,97.39,97.44,97.45,97.375,97.345,97.43,97.41,97.38,97.28,97.25,97.22,97.2,97.21,97.26,97.27,97.305,97.38,97.453,97.5,97.51,97.46,97.53,97.56,97.585,97.64,97.69,97.66,97.73,97.78,97.79,97.84,97.85,97.904,97.89,97.93,97.925,97.94,97.94,97.95,98.06,98.07,98.08,98.09,98.05,98.05,98.085,98.08,98.05,98.095,98.175,98.13,98.12,98.192,98.3,98.3,98.26,98.21,98.18,98.27,98.27,98.23,98.23,98.25,98.18,98.08,98.14,98.16,98.13,98.23,98.28,98.38,98.35,98.31,98.28,98.27,98.28,98.2,98.25,98.2,98.2,98.23,98.25,98.28,98.27,98.28,98.281,98.25,98.29,98.36,98.36,98.42,98.45,98.44,98.42,98.42,98.48,98.53,98.52,98.49,98.31,98.28,98.26,98.23,98.3,98.36,98.34,98.43,98.5,98.53,98.515,98.44,98.39,98.31,98.3,98.33,98.31,98.27,98.25,98.335,98.39,98.43,98.42,98.43,98.4,98.34,98.395,98.35,98.36,98.26,98.29,98.375,98.39,98.44,98.435,98.42,98.37,98.34,98.27,98.237,98.23,98.21,98.2,98.19,98.21,98.2,98.18,98.18,98.228,98.29,98.35,98.37,98.39,98.47,98.48,98.49,98.58,98.64,98.62,98.41,98.42,98.4,98.41,98.44,98.44,98.455,98.475,98.45,98.46,98.46,98.465,98.43,98.45,98.56,98.55,98.46,98.447,98.425,98.425,98.46,98.48,98.46,98.45,98.54,98.54,98.6,98.65,98.56,98.46,98.5,98.47,98.48,98.535,98.545,98.535,98.5,98.48,98.48,98.53,98.53,98.54,98.48,98.51,98.43,98.48,98.46,98.53,98.595,98.65,98.67,98.68,98.76
2019-04-08,99.38,99.66,99.88,99.98,100.09,99.87,99.93,99.9,99.77,99.62,100.07,100.19,100.51,100.64,100.4,100.64,100.87,100.89,100.99,100.875,100.99,100.93,100.99,100.91,100.73,100.62,100.34,100.33,100.185,100.35,100.25,100.14,100.17,100.26,100.2,100.1,100.19,100.09,100.025,100.03,100.123,100.12,100.04,100.11,100.09,100.17,100.24,100.45,100.62,100.58,100.55,100.42,100.39,100.41,100.47,100.455,100.37,100.42,100.4,100.38,100.3,100.19,100.19,100.19,100.21,100.2,100.27,100.29,100.33,100.36,100.41,100.37,100.36,100.32,100.28,100.19,100.14,100.16,100.25,100.18,100.29,100.31,100.32,100.3,100.29,100.32,100.26,100.23,100.175,100.18,100.24,100.22,100.13,100.015,100.05,100.04,99.99,100.05,100.016,100.04,99.985,99.94,99.93,99.82,99.795,99.68,99.69,99.5,99.33,99.31,99.19,99.2,99.305,99.32,99.23,99.24,99.25,99.29,99.379,99.34,99.529,99.5,99.52,99.595,99.61,99.56,99.44,99.5,99.52,99.51,99.43,99.43,99.45,99.46,99.43,99.46,99.435,99.48,99.51,99.59,99.56,99.47,99.46,99.51,99.5,99.49,99.49,99.48,99.47,99.44,99.37,99.4,99.38,99.3,99.34,99.35,99.35,99.355,99.23,99.22,99.22,99.2,99.17,99.14,99.16,99.21,99.325,99.34,99.375,99.41,99.39,99.34,99.325,99.38,99.41,99.42,99.47,99.47,99.47,99.43,99.39,99.39,99.27,99.26,99.17,99.25,99.25,99.29,99.35,99.345,99.44,99.5,99.46,99.47,99.57,99.57,99.6,99.54,99.53,99.48,99.52,99.52,99.52,99.555,99.54,99.58,99.62,99.64,99.66,99.62,99.52,99.51,99.5,99.49,99.485,99.424,99.42,99.46,99.51,99.46,99.48,99.545,99.506,99.48,99.43,99.396,99.37,99.4,99.44,99.43,99.37,99.35,99.35,99.43,99.41,99.43,99.42,99.43,99.44,99.38,99.37,99.37,99.43,99.37,99.38,99.36,99.34,99.4,99.44,99.44,99.53,99.48,99.46,99.5,99.44,99.48,99.5,99.505,99.54,99.5,99.53,99.53,99.48,99.52,99.56,99.55,99.485,99.55,99.53,99.52,99.53,99.5,99.425,99.48,99.489,99.5,99.5,99.39,99.41,99.36,99.38,99.355,99.34,99.38,99.32,99.34,99.31,99.335,99.32,99.35,99.335,99.31,99.3,99.28,99.32,99.3,99.31,99.35,99.33,99.32,99.29,99.28,99.31,99.42,99.43,99.41,99.395,99.41,99.415,99.415,99.355,99.27,99.31,99.32,99.29,99.32,99.3,99.313,99.315,99.31,99.32,99.38,99.38,99.48,99.47,99.46,99.46,99.455,99.45,99.42,99.44,99.33,99.315,99.38,99.37,99.32,99.3,99.32,99.283,99.32,99.36,99.38,99.41,99.395,99.38,99.33,99.36,99.36,99.38,99.43,99.5,99.49,99.47,99.47,99.43,99.38,99.41,99.43,99.42,99.404,99.405,99.45,99.43,99.45,99.4,99.39,99.44,99.505,99.51,99.46,99.455,99.42,99.41,99.405,99.4,99.415,99.39,99.38,99.42,99.43,99.4,99.43,99.41,99.39,99.41,99.38,99.33,99.32,99.36,99.53
2019-04-09,99.11,98.65,98.59,98.365,98.23,98.04,97.77,97.733,97.79,97.91,97.95,97.885,97.86,97.93,98.112,98.005,98.15,98.16,98.15,98.16,98.25,98.35,98.42,98.27,98.36,98.355,98.28,98.37,98.4,98.19,98.16,98.16,98.1,97.91,97.78,97.76,97.825,97.83,97.84,97.75,97.73,97.81,97.84,97.76,97.73,97.77,97.76,97.68,97.69,97.665,97.6,97.67,97.71,97.69,97.9,98.04,98.04,98.07,98.15,98.09,98.05,97.92,97.808,97.86,97.89,97.96,98.08,98.1,98.09,97.9,97.9,97.84,97.76,97.68,97.69,97.69,97.65,97.73,97.71,97.55,97.48,97.57,97.59,97.485,97.6,97.57,97.63,97.55,97.65,97.76,97.77,97.645,97.64,97.79,97.83,97.76,97.85,97.81,97.8,97.68,97.67,97.63,97.575,97.55,97.65,97.78,97.77,97.8,97.75,97.71,97.72,97.77,97.784,97.73,97.7,97.67,97.7,97.72,97.77,97.74,97.845,98.07,98.13,98.085,98.05,98.03,98.11,98.07,98.05,98.14,98.15,98.13,98.26,98.28,98.26,98.28,98.35,98.349,98.35,98.43,98.49,98.6,98.64,98.63,98.76,98.73,98.68,98.67,98.68,98.69,98.75,98.83,98.81,98.84,98.89,98.88,98.84,98.89,98.97,99.049,99.02,99.02,99.045,99.14,99.18,99.27,99.27,99.24,99.28,99.25,99.27,99.29,99.27,99.23,99.3,99.34,99.36,99.35,99.37,99.36,99.38,99.39,99.36,99.4,99.41,99.43,99.39,99.38,99.39,99.4,99.45,99.46,99.52,99.59,99.57,99.5,99.51,99.49,99.43,99.41,99.356,99.285,99.2,99.165,99.13,99.14,99.135,99.14,99.09,99.02,99.03,98.99,99.03,99.025,98.98,98.97,98.96,99.0,99.05,99.04,99.05,99.09,99.045,99.02,98.992,99.0,98.975,99.02,99.015,98.94,98.93,98.91,98.91,98.88,98.88,98.9,98.89,98.88,98.88,98.84,98.8,98.74,98.74,98.66,98.69,98.69,98.68,98.71,98.81,98.86,98.91,99.02,98.96,98.94,98.93,98.93,98.94,98.935,98.93,98.92,98.89,98.89,98.89,98.88,98.86,98.86,98.885,98.89,98.89,98.92,98.92,98.856,98.85,98.81,98.81,98.81,98.81,98.77,98.74,98.72,98.69,98.68,98.67,98.6,98.66,98.76,98.77,98.745,98.73,98.72,98.73,98.73,98.73,98.715,98.71,98.69,98.71,98.81,98.8,98.79,98.8,98.81,98.74,98.73,98.71,98.69,98.68,98.67,98.74,98.75,98.7,98.68,98.65,98.66,98.63,98.55,98.52,98.47,98.46,98.52,98.55,98.56,98.51,98.59,98.6,98.55,98.52,98.5,98.43,98.4,98.5,98.54,98.55,98.515,98.56,98.57,98.5,98.48,98.52,98.51,98.53,98.55,98.53,98.58,98.57,98.57,98.56,98.515,98.46,98.45,98.38,98.34,98.38,98.37,98.37,98.34,98.3,98.29,98.43,98.42,98.48,98.49,98.48,98.52,98.53,98.58,98.56,98.545,98.53,98.59,98.62,98.63,98.64,98.61,98.62,98.66,98.65,98.7,98.71,98.7,98.69,98.69,98.68,98.69,98.71,98.57,98.56,98.56,98.54,98.62
2019-04-10,99.34,99.31,99.25,99.79,99.87,99.96,100.04,100.045,99.937,99.67,99.64,99.86,99.76,99.73,99.73,99.65,99.81,99.84,99.8,99.81,99.81,99.71,99.55,99.64,99.6,99.53,99.52,99.45,99.59,99.58,99.42,99.505,99.48,99.4,99.27,99.31,99.5,99.28,99.16,99.25,99.19,99.205,99.25,99.34,99.26,99.17,99.19,99.17,99.15,99.19,99.19,99.24,99.1,99.06,99.04,98.98,98.984,99.0,98.95,99.0,99.08,99.115,99.07,98.94,98.97,99.066,99.0,98.895,98.84,98.869,98.98,99.08,99.11,99.07,98.89,98.85,98.84,98.87,98.865,98.81,98.85,98.79,98.83,98.88,98.89,98.9,98.97,98.88,98.84,98.87,98.87,98.94,98.97,99.01,99.03,98.98,99.05,99.03,99.01,99.02,98.95,98.965,98.95,98.88,98.85,98.92,98.95,98.87,98.87,98.8,98.805,98.88,98.85,98.83,98.91,99.01,98.93,98.87,98.87,98.88,98.94,98.99,98.96,99.015,99.055,99.05,98.97,98.98,98.87,98.83,98.84,98.82,98.91,98.89,98.85,98.89,98.95,98.95,98.98,98.94,98.885,98.88,98.91,98.93,99.01,99.08,99.065,99.04,99.03,99.11,99.15,99.215,99.21,99.219,99.2,99.25,99.27,99.42,99.43,99.39,99.39,99.43,99.475,99.44,99.34,99.23,99.34,99.37,99.44,99.425,99.58,99.58,99.559,99.58,99.55,99.56,99.54,99.47,99.44,99.41,99.33,99.31,99.32,99.34,99.355,99.32,99.42,99.42,99.48,99.47,99.42,99.42,99.39,99.38,99.35,99.37,99.33,99.29,99.29,99.27,99.26,99.26,99.3,99.32,99.26,99.26,99.25,99.25,99.22,99.2,99.2,99.2,99.16,99.15,99.14,99.18,99.17,99.18,99.17,99.18,99.26,99.22,99.2,99.135,99.21,99.22,99.16,99.11,99.15,99.17,99.2,99.14,99.1,99.12,99.14,99.12,99.12,99.055,98.95,99.0,99.04,99.01,98.93,98.95,98.97,98.98,98.94,98.88,98.91,98.92,98.93,98.91,98.91,98.93,98.975,98.96,98.936,98.9,98.93,98.95,98.955,98.91,98.87,98.9,98.88,98.82,98.85,98.85,98.86,98.84,98.89,98.86,98.89,98.83,98.77,98.81,98.74,98.79,98.78,98.72,98.75,98.74,98.66,98.68,98.67,98.65,98.639,98.64,98.67,98.59,98.636,98.64,98.555,98.51,98.52,98.54,98.53,98.51,98.52,98.57,98.56,98.54,98.5,98.5,98.5,98.5,98.61,98.62,98.64,98.69,98.72,98.77,98.77,98.76,98.75,98.73,98.75,98.76,98.79,98.75,98.77,98.75,98.74,98.7,98.685,98.755,98.79,98.76,98.74,98.711,98.77,98.9,98.93,98.94,99.13,99.0,98.99,98.98,98.96,98.995,98.97,98.9,98.88,98.87,98.85,98.855,98.839,98.81,98.795,98.735,98.65,98.643,98.7,98.695,98.7,98.72,98.735,98.8,98.855,98.84,98.88,98.83,98.895,98.9,98.84,98.825,98.79,98.795,98.755,98.76,98.74,98.75,98.735,98.66,98.63,98.63,98.63,98.605,98.58,98.61,98.6,98.615,98.52,98.49,98.52,98.48,98.59,98.62,98.66,98.78
2019-04-11,98.5,98.36,98.167,98.12,98.035,98.19,98.11,98.12,98.176,98.27,98.17,98.07,98.08,98.11,98.27,98.57,99.0,98.99,98.99,98.985,99.09,99.03,99.05,99.004,99.09,99.01,99.07,99.07,99.03,99.19,99.29,99.27,99.46,99.43,99.37,99.38,99.305,99.28,99.27,99.18,99.17,99.23,99.21,99.31,99.36,99.43,99.42,99.54,99.55,99.56,99.655,99.76,99.76,99.703,99.7,99.72,99.66,99.48,99.49,99.42,99.41,99.49,99.41,99.49,99.55,99.48,99.44,99.53,99.575,99.61,99.59,99.6,99.51,99.53,99.47,99.5,99.525,99.46,99.36,99.28,99.31,99.325,99.31,99.34,99.243,99.1,99.04,99.13,99.06,98.978,98.94,98.905,98.835,98.74,98.71,98.66,98.65,98.82,98.85,98.89,98.88,98.83,98.93,99.05,99.11,99.17,99.12,99.08,99.0,98.82,98.77,98.87,98.75,98.69,98.65,98.65,98.71,98.7,98.615,98.68,98.65,98.63,98.65,98.58,98.56,98.6,98.58,98.5,98.475,98.46,98.31,98.14,98.12,98.15,98.15,98.28,98.19,98.28,98.33,98.28,98.35,98.28,98.08,97.98,98.11,98.1,98.2,98.21,98.155,98.1,98.04,98.0,98.08,98.1,98.05,98.01,98.08,98.16,98.18,98.03,98.075,98.105,98.11,98.1,98.205,98.195,98.105,98.08,98.025,98.09,98.07,98.05,98.05,98.11,98.115,98.11,97.99,97.86,97.83,97.835,97.79,97.81,97.85,97.855,97.78,97.75,97.88,97.89,97.85,97.915,97.89,97.85,97.8,97.875,98.02,98.08,98.07,98.06,98.15,98.13,98.18,98.29,98.35,98.34,98.38,98.43,98.38,98.385,98.39,98.42,98.49,98.5,98.47,98.503,98.48,98.49,98.51,98.445,98.45,98.575,98.57,98.52,98.473,98.49,98.49,98.41,98.375,98.5,98.593,98.64,98.63,98.62,98.79,98.92,98.92,98.86,98.78,98.61,98.72,98.79,98.815,98.69,98.72,98.745,98.79,98.84,98.74,98.69,98.63,98.63,98.569,98.57,98.6,98.58,98.6,98.63,98.7,98.72,98.88,98.91,98.96,98.915,98.84,98.875,98.87,98.93,98.94,98.915,98.89,98.89,98.88,98.8,98.83,98.88,98.92,98.91,98.89,98.87,98.91,98.94,98.895,98.92,98.96,99.01,99.05,99.01,99.025,99.04,99.08,99.07,98.95,98.905,98.86,98.854,98.88,98.86,98.91,98.9,98.91,98.89,98.9,98.93,98.92,98.86,98.88,98.84,98.805,98.8,98.77,98.77,98.78,98.76,98.725,98.79,98.8,98.81,98.83,98.84,98.86,98.85,98.88,98.83,98.84,98.92,98.85,98.81,98.72,98.76,98.72,98.74,98.7,98.74,98.76,98.79,98.885,98.92,98.93,98.87,98.84,98.86,98.85,98.855,98.85,98.84,98.85,98.91,98.92,98.97,98.95,98.91,98.9,98.88,98.94,98.92,98.87,98.83,98.82,98.77,98.78,98.78,98.81,98.83,98.88,98.88,98.82,98.82,98.81,98.82,98.82,98.815,98.81,98.82,98.77,98.75,98.74,98.74,98.74,98.705,98.75,98.8,98.86,98.86,98.85,98.88,98.97,99.0,98.98,98.94,98.97,98.96
2019-04-12,103.08,103.03,103.15,103.13,103.37,103.38,103.204,103.32,103.22,103.27,103.65,103.77,103.83,103.97,103.9,103.9,103.9,103.9,103.83,103.69,103.72,103.62,103.63,103.74,103.795,103.92,103.88,103.95,103.54,103.5,103.41,103.18,103.06,103.015,102.97,102.99,103.25,102.75,102.69,102.9,103.045,103.105,103.11,102.98,102.94,102.93,102.97,102.87,102.77,102.81,102.879,102.95,103.19,103.35,103.45,103.41,103.462,103.48,103.48,103.44,103.43,103.31,103.39,103.29,103.245,103.05,103.04,103.07,103.14,103.11,102.86,102.72,102.725,102.76,102.73,102.83,102.925,102.83,102.71,102.91,102.89,102.89,102.96,103.01,103.01,103.07,102.95,102.99,103.02,103.0,102.9,103.05,102.99,103.09,103.09,103.01,102.96,102.791,102.918,102.92,102.99,102.96,102.97,102.95,102.92,102.92,102.93,102.89,102.88,102.82,102.82,102.86,102.91,102.98,102.96,102.91,102.94,102.95,102.95,102.95,102.96,102.92,102.89,102.925,102.94,103.03,103.0,102.935,103.01,103.02,102.93,102.91,102.94,102.975,103.0,103.02,102.95,102.98,102.95,102.97,103.028,103.09,103.15,103.32,103.31,103.35,103.375,103.33,103.34,103.4,103.41,103.41,103.39,103.37,103.36,103.375,103.37,103.35,103.4,103.45,103.4,103.37,103.34,103.34,103.33,103.3,103.36,103.4,103.465,103.47,103.45,103.44,103.42,103.33,103.29,103.32,103.32,103.35,103.31,103.429,103.49,103.49,103.47,103.47,103.42,103.43,103.36,103.43,103.49,103.53,103.63,103.77,103.79,103.83,103.93,103.98,103.99,104.0,104.11,104.115,104.09,104.06,104.11,104.14,104.23,104.335,104.332,104.47,104.515,104.525,104.64,104.76,104.8,104.77,104.79,104.79,104.75,104.75,104.74,104.758,104.785,104.79,104.65,104.745,104.745,104.685,104.75,104.745,104.77,104.79,104.77,104.77,104.79,104.76,104.86,104.93,104.95,105.07,104.99,105.03,105.05,105.09,105.12,105.1,105.04,105.115,105.22,105.29,105.27,105.37,105.45,105.56,105.55,105.54,105.59,105.63,105.47,105.28,105.19,105.32,105.39,105.42,105.46,105.5,105.42,105.465,105.48,105.47,105.54,105.605,105.575,105.64,105.74,105.735,105.74,105.87,105.786,105.72,105.73,105.8,105.76,105.77,105.77,105.765,105.821,105.94,106.01,106.085,106.09,106.06,105.96,105.83,105.755,105.73,105.77,105.68,105.63,105.6,105.56,105.63,106.0,106.01,105.9,105.82,105.91,105.89,105.88,105.74,105.71,105.58,105.55,105.51,105.38,105.34,105.25,105.15,105.18,105.218,105.21,105.21,105.14,105.35,105.3,105.25,105.19,105.3,105.27,105.21,105.27,105.38,105.38,105.6,105.64,105.78,105.84,105.82,105.86,105.84,106.0,106.07,106.07,106.12,106.14,106.305,106.46,106.48,106.36,106.335,106.27,106.14,106.11,105.92,105.88,105.99,105.8,105.66,105.64,105.585,105.67,105.83,105.79,105.66,105.63,105.67,105.67,105.67,105.64,105.55,105.54,105.55,105.62,105.52,105.53,105.52,105.48,105.43,105.42,105.42,105.41,105.38,105.36,105.34,105.3,105.3,105.28,105.36,105.46,105.45,105.39,105.43
2019-04-15,104.72,104.66,104.02,104.19,103.96,103.6,103.485,103.625,103.52,103.83,103.86,103.53,103.304,102.92,103.04,102.89,102.98,102.93,102.97,103.03,103.01,103.14,103.06,102.95,103.12,103.24,103.17,103.57,103.74,103.6,103.5,103.83,103.91,103.8,103.76,103.76,103.76,103.71,103.89,103.7,103.61,103.71,103.56,103.5,103.45,103.54,103.6,103.6,103.46,103.44,103.45,103.38,103.435,103.495,103.44,103.35,103.45,103.32,103.285,103.21,103.05,103.01,102.82,102.825,102.85,102.74,102.71,102.87,102.71,102.76,102.709,102.595,102.64,102.56,102.53,102.47,102.5,102.51,102.47,102.51,102.605,102.62,102.61,102.625,102.65,102.655,102.645,102.63,102.61,102.705,102.69,102.592,102.437,102.42,102.37,102.34,102.25,102.315,102.39,102.436,102.57,102.58,102.61,102.62,102.545,102.55,102.522,102.345,102.26,102.1,102.155,102.15,102.055,102.14,102.16,102.07,102.14,102.04,102.155,102.17,102.24,102.34,102.33,102.32,102.31,102.31,102.32,102.33,102.39,102.38,102.43,102.64,102.56,102.455,102.5,102.52,102.555,102.535,102.56,102.365,102.37,102.325,102.395,102.39,102.36,102.339,102.39,102.38,102.385,102.35,102.27,102.21,102.2,102.2,102.21,102.33,102.35,102.33,102.35,102.4,102.33,102.34,102.25,102.19,102.24,102.22,102.21,102.22,102.18,102.2,102.22,102.22,102.24,102.23,102.175,102.19,102.13,102.1,102.09,102.06,102.12,102.11,102.07,102.045,102.02,102.12,102.17,102.138,102.12,102.17,102.165,102.17,102.21,102.17,102.1,102.11,102.17,102.15,102.14,102.2,102.22,102.18,102.14,102.14,102.15,102.12,102.2,102.24,102.19,102.185,102.27,102.25,102.25,102.375,102.38,102.31,102.32,102.31,102.3,102.25,102.22,102.19,102.15,102.14,102.14,102.1,102.095,102.12,102.06,102.09,102.14,102.24,102.17,102.235,102.28,102.34,102.27,102.285,102.32,102.43,102.48,102.43,102.382,102.36,102.37,102.33,102.33,102.37,102.44,102.45,102.42,102.45,102.5,102.46,102.45,102.435,102.475,102.445,102.42,102.42,102.47,102.493,102.47,102.49,102.445,102.442,102.44,102.365,102.35,102.42,102.52,102.51,102.53,102.525,102.59,102.565,102.48,102.47,102.41,102.455,102.46,102.43,102.47,102.49,102.49,102.47,102.51,102.54,102.55,102.49,102.48,102.46,102.39,102.335,102.33,102.3,102.22,102.24,102.22,102.24,102.32,102.27,102.08,102.08,102.06,102.01,101.93,101.89,101.84,101.86,101.76,101.67,101.54,101.515,101.51,101.5,101.56,101.565,101.565,101.549,101.51,101.62,101.64,101.715,101.75,101.72,101.72,101.78,101.8,101.79,101.82,101.789,101.725,101.82,101.78,101.81,101.847,101.805,101.775,101.785,101.81,101.76,101.74,101.66,101.63,101.71,101.77,101.71,101.69,101.66,101.73,101.68,101.71,101.7,101.67,101.735,101.7,101.7,101.7,101.72,101.74,101.73,101.7,101.77,101.77,101.76,101.75,101.77,101.81,101.81,101.8,101.83,101.86,101.74,101.725,101.67,101.74,101.805,101.92,101.945,102.055,101.93,101.97,101.97,101.97,101.97,101.96,102.0,101.99,102.18
2019-04-16,102.194,102.09,101.96,101.99,101.98,101.99,101.75,101.6,101.58,101.51,101.595,101.41,101.38,101.38,101.47,101.63,101.705,101.78,101.58,101.56,101.29,101.22,101.22,101.28,101.42,101.39,101.44,101.301,101.35,101.38,101.44,101.43,101.46,101.5,101.51,101.51,101.48,101.464,101.47,101.48,101.52,101.53,101.78,101.815,101.68,101.74,101.655,101.6,101.54,101.6,101.67,101.71,101.73,101.77,101.74,101.79,101.76,101.92,101.98,102.09,102.14,102.1,101.99,101.96,101.97,101.955,102.02,102.04,102.07,102.04,102.06,102.07,102.06,102.05,102.02,101.92,101.94,101.99,101.94,101.89,101.88,101.87,101.88,101.97,101.95,101.87,101.895,101.82,101.83,101.72,101.65,101.65,101.61,101.54,101.51,101.38,101.46,101.38,101.39,101.48,101.62,101.74,101.67,101.73,101.86,101.9,101.93,101.76,101.67,101.6,101.576,101.59,101.63,101.62,101.62,101.5,101.57,101.57,101.57,101.61,101.59,101.6,101.57,101.6,101.6,101.64,101.64,101.66,101.59,101.57,101.6,101.605,101.62,101.66,101.68,101.68,101.7,101.7,101.76,101.83,101.86,101.94,101.95,101.99,101.99,102.0,102.07,102.075,102.07,102.06,102.1,102.09,102.05,102.1,102.13,102.15,102.17,102.195,102.17,102.165,102.1,102.11,102.13,102.08,102.09,102.15,102.18,102.2,102.19,102.21,102.16,102.166,102.13,102.12,101.96,101.995,102.02,102.01,101.975,102.03,102.05,102.12,102.13,102.16,102.18,102.213,102.21,102.19,102.17,102.12,102.056,102.03,102.06,102.07,102.08,102.11,102.15,102.165,102.14,102.13,102.12,102.08,102.08,102.09,102.02,102.05,102.05,102.09,102.07,102.0,102.04,102.04,102.05,102.01,102.05,102.08,102.09,102.1,102.12,102.05,102.08,102.06,102.04,102.03,102.005,102.01,102.01,102.04,102.03,102.04,102.08,102.09,102.062,102.05,102.04,102.02,102.02,101.98,101.97,101.975,102.03,102.03,102.02,101.99,101.965,101.95,101.92,101.94,101.929,101.96,101.96,102.03,101.94,101.925,101.95,101.95,101.96,101.98,102.01,102.07,102.05,102.07,102.05,102.06,102.02,101.95,101.94,101.95,101.92,101.94,101.92,101.922,101.93,101.96,101.905,101.98,102.02,102.05,102.03,102.13,102.15,102.16,102.18,102.19,102.17,102.27,102.29,102.35,102.36,102.55,102.485,102.53,102.6,102.63,102.65,102.65,102.74,102.79,102.82,102.75,102.8,102.705,102.75,102.75,102.81,102.75,102.69,102.66,102.64,102.67,102.73,102.75,102.68,102.62,102.63,102.61,102.63,102.64,102.55,102.58,102.58,102.6,102.59,102.57,102.62,102.61,102.57,102.565,102.57,102.5,102.53,102.55,102.54,102.52,102.47,102.46,102.495,102.49,102.48,102.54,102.54,102.51,102.51,102.51,102.53,102.54,102.5,102.49,102.47,102.4,102.42,102.38,102.37,102.45,102.46,102.46,102.44,102.46,102.475,102.553,102.54,102.59,102.66,102.64,102.53,102.47,102.47,102.53,102.43,102.38,102.34,102.38,102.35,102.41,102.355,102.38,102.385,102.35,102.39,102.325,102.31,102.31,102.34,102.36,102.39,102.37,102.39,102.39,102.39,102.4
2019-04-17,103.46,103.66,103.73,103.84,103.73,103.71,103.63,103.605,103.665,103.55,103.67,103.61,103.76,103.795,103.99,103.95,103.99,103.835,103.8,103.755,103.8,103.87,103.76,103.66,103.7,103.83,103.94,103.96,104.03,-1.0,104.11,104.05,104.09,104.27,104.41,104.45,104.27,104.34,104.13,103.95,103.9,103.73,103.75,103.83,103.91,103.75,103.81,103.74,103.64,103.51,103.6,103.7,103.84,103.74,103.77,103.858,103.82,103.83,103.8,103.87,103.89,104.0,103.92,104.01,103.93,104.02,104.03,103.895,103.93,103.97,103.95,103.83,103.7,103.68,103.63,103.555,103.615,103.65,103.63,103.61,103.57,103.549,103.5,103.5,103.51,103.58,103.57,103.5,103.48,103.375,103.21,103.19,103.17,103.22,103.26,103.43,103.51,103.525,103.57,103.6,103.55,103.55,103.53,103.47,103.38,103.425,103.455,103.49,103.37,103.37,103.405,103.375,103.43,103.51,103.505,103.44,103.44,103.45,103.43,103.44,103.37,103.32,103.235,103.23,103.165,103.21,103.31,103.33,103.26,103.19,103.22,103.19,103.18,103.23,103.22,103.2,103.17,103.1,103.11,103.23,103.22,103.13,103.04,103.05,103.075,103.085,103.02,102.955,102.88,102.9,102.9,102.9,102.78,102.73,102.715,102.65,102.76,102.83,102.84,102.808,102.78,102.77,102.66,102.72,102.7,102.61,102.6,102.68,102.86,102.77,102.79,102.75,102.64,102.64,102.59,102.62,102.685,102.665,102.72,102.68,102.745,102.72,102.745,102.745,102.68,102.67,102.68,102.65,102.61,102.51,102.43,102.34,102.3,102.38,102.4,102.535,102.53,102.5,102.45,102.545,102.585,102.57,102.585,102.58,102.53,102.58,102.6,102.575,102.48,102.5,102.49,102.47,102.44,102.401,102.44,102.5,102.51,102.43,102.425,102.46,102.471,102.45,102.42,102.41,102.42,102.47,102.5,102.57,102.601,102.665,102.67,102.66,102.77,102.74,102.709,102.69,102.73,102.79,102.87,102.91,102.85,102.84,102.83,102.81,102.84,102.82,102.83,102.79,102.79,102.81,102.82,102.86,102.85,102.81,102.8,102.765,102.7,102.66,102.62,102.61,102.53,102.46,102.485,102.5,102.53,102.59,102.58,102.6,102.595,102.58,102.59,102.58,102.55,102.5,102.52,102.54,102.57,102.58,102.57,102.57,102.52,102.44,102.36,102.36,102.3,102.31,102.36,102.31,102.35,102.34,102.29,102.25,102.23,102.2,102.121,102.08,102.08,102.12,102.11,102.03,102.05,102.05,102.08,102.08,102.05,101.98,101.91,101.87,101.84,101.825,101.8,101.74,101.82,101.79,101.8,101.83,101.88,101.8,101.78,101.77,101.8,101.84,101.83,101.85,101.8,101.77,101.75,101.72,101.69,101.67,101.73,101.71,101.75,101.8,101.86,101.8,101.8,101.79,101.79,101.71,101.66,101.6,101.58,101.6,101.65,101.66,101.54,101.515,101.57,101.59,101.6,101.58,101.675,101.68,101.63,101.6,101.56,101.57,101.69,101.75,101.74,101.74,101.68,101.66,101.69,101.7,101.7,101.75,101.74,101.81,101.9,101.93,101.91,101.88,101.88,101.98,101.94,101.885,101.94,102.0,102.03,102.01,101.94,101.89,101.87,101.87,101.81,101.905,101.85,101.88
2019-04-18,102.02,102.13,102.35,102.303,102.16,102.11,101.91,101.77,101.87,101.88,101.965,101.95,102.13,102.13,102.24,102.14,102.1,102.07,102.12,102.2,102.285,102.3,102.249,102.27,102.16,102.08,102.15,102.21,102.36,102.375,102.325,102.25,102.22,102.17,102.19,102.29,102.28,102.33,102.43,102.43,102.46,102.44,102.49,102.45,102.56,102.54,102.53,102.56,102.57,102.51,102.53,102.51,102.52,102.57,102.53,102.54,102.54,102.58,102.67,102.67,102.74,102.69,102.725,102.74,102.74,102.72,102.75,102.72,102.78,102.82,102.76,102.71,102.73,102.74,102.77,102.83,102.89,102.95,102.95,102.99,102.97,102.93,102.99,102.95,102.91,102.98,102.98,103.07,103.109,103.15,103.15,103.19,103.21,103.22,103.19,103.05,103.15,103.1,103.21,103.25,103.28,103.29,103.28,103.22,103.09,103.12,103.02,103.01,103.08,103.17,103.08,103.13,103.17,103.17,103.18,103.25,103.26,103.3,103.3,103.43,103.49,103.58,103.64,103.68,103.64,103.65,103.63,103.71,103.765,103.73,103.82,103.76,103.74,103.65,103.76,103.65,103.63,103.72,103.73,103.69,103.69,103.66,103.65,103.55,103.57,103.58,103.66,103.8,103.78,103.75,103.87,104.0,103.98,104.08,104.1,104.1,104.14,104.14,104.11,103.99,103.94,103.92,103.88,103.99,103.94,103.9,103.83,103.83,103.77,103.833,103.86,103.88,103.87,103.855,103.81,103.86,103.86,103.85,103.87,103.86,103.81,103.82,103.82,103.79,103.87,103.85,103.8,103.77,103.72,103.74,103.74,103.73,103.7,103.76,103.78,103.77,103.87,103.94,103.98,103.99,103.97,103.98,104.04,104.09,104.14,104.07,104.02,104.03,104.0,104.07,104.09,104.1,104.19,104.176,104.12,104.12,104.24,104.21,104.085,104.11,104.207,104.2,104.251,104.27,104.24,104.22,104.18,104.19,104.23,104.23,104.22,104.2,104.142,104.22,104.24,104.24,104.23,104.18,104.17,104.15,104.17,104.14,104.166,104.22,104.19,104.2,104.24,104.25,104.23,104.27,104.27,104.23,104.25,104.204,104.18,104.2,104.19,104.09,104.08,104.11,104.11,104.16,104.07,104.1,104.04,104.06,104.17,104.12,104.08,104.07,104.17,104.2,104.2,104.09,104.1,103.98,103.965,103.9,103.9,103.93,103.92,103.87,103.76,103.731,103.677,103.72,103.79,103.76,103.72,103.85,103.76,103.75,103.77,103.81,103.819,103.803,103.76,103.78,103.837,103.89,103.89,103.857,103.885,103.9,103.91,104.005,103.97,103.94,103.94,103.94,103.93,103.91,103.93,103.97,103.95,103.96,104.0,103.98,103.93,103.93,103.9,103.8,103.76,103.69,103.7,103.7,103.68,103.72,103.72,103.74,103.7,103.671,103.615,103.55,103.48,103.429,103.37,103.44,103.65,103.72,103.72,103.72,103.78,103.81,103.86,103.9,103.86,103.98,103.9,103.87,103.98,104.03,104.05,104.11,104.05,104.2,104.25,104.15,104.16,104.19,104.16,104.09,104.12,104.1,104.12,104.18,104.15,104.11,104.12,104.13,104.15,104.14,104.12,104.16,104.26,104.217,104.2,104.27,104.29,104.25,104.251,104.155,104.13,104.11,104.065,104.0,104.0,103.96,103.95,103.92
2019-04-22,105.8,105.72,105.59,105.81,105.93,105.79,105.78,105.841,105.929,105.9,105.79,105.75,105.73,105.51,105.37,105.42,105.51,105.48,105.3,105.14,104.995,104.8,104.84,104.82,104.92,104.974,105.05,104.93,104.95,104.84,104.99,105.09,105.0,104.986,105.055,105.03,105.3,105.301,105.37,105.26,105.37,105.41,105.24,105.205,105.17,105.13,105.1,105.15,105.13,105.2,105.28,105.39,105.455,105.41,105.41,105.38,105.58,105.71,105.82,105.87,105.86,105.86,105.78,105.82,105.55,105.41,105.48,105.48,105.512,105.42,105.29,105.25,105.325,105.37,105.321,105.372,105.388,105.47,105.55,105.57,105.68,105.71,105.86,105.9,105.82,105.84,105.82,105.87,105.76,105.78,105.75,105.7,105.59,105.5,105.39,105.36,105.39,105.46,105.62,105.605,105.66,105.77,105.79,105.74,105.72,105.74,105.7,105.65,105.611,105.69,105.75,105.69,105.65,105.767,105.73,105.77,105.76,105.7,105.71,105.82,105.82,105.88,105.84,105.79,105.84,105.9,105.894,105.95,105.92,105.92,106.12,106.12,106.04,106.09,106.1,106.105,106.11,106.12,106.11,106.04,106.108,106.105,106.14,106.09,106.125,106.08,106.15,106.2,106.28,106.369,106.41,106.405,106.42,106.425,106.49,106.485,106.48,106.51,106.65,106.66,106.721,106.74,106.72,106.71,106.79,106.89,106.88,106.83,106.88,106.85,106.84,106.75,106.665,106.69,106.741,106.79,106.78,106.69,106.78,106.81,106.86,106.875,106.9,106.92,106.98,106.93,106.94,106.93,107.06,107.03,107.0,106.94,106.97,107.0,107.04,107.05,107.046,107.1,107.11,107.147,107.13,107.13,107.07,107.04,107.03,107.0,106.88,106.96,106.955,106.94,106.91,106.96,107.07,107.16,107.16,107.09,107.15,107.14,107.15,107.25,107.2,107.11,107.06,107.03,107.067,107.03,107.12,107.13,107.145,107.13,107.02,106.98,107.065,107.04,107.03,107.09,107.11,107.15,107.14,107.11,107.129,107.06,107.1,107.1,107.1,107.04,107.031,107.11,107.15,107.18,107.19,107.19,107.21,107.23,107.3,107.27,107.25,107.23,107.26,107.26,107.28,107.26,107.22,107.26,107.271,107.27,107.25,107.155,107.08,107.08,107.11,107.06,106.99,107.0,107.01,107.02,106.99,106.93,106.93,106.95,106.9,106.9,106.86,106.86,106.85,106.856,106.82,106.81,106.82,106.81,106.74,106.72,106.68,106.668,106.61,106.62,106.62,106.6,106.66,106.666,106.68,106.67,106.662,106.67,106.62,106.57,106.5,106.47,106.43,106.34,106.29,106.39,106.5,106.56,106.57,106.58,106.64,106.59,106.662,106.65,106.6,106.635,106.64,106.735,106.755,106.775,106.78,106.735,106.78,106.77,106.755,106.8,106.8,106.79,106.79,106.71,106.73,106.775,106.78,106.76,106.72,106.65,106.64,106.62,106.64,106.63,106.65,106.65,106.67,106.72,106.66,106.66,106.72,106.73,106.74,106.74,106.725,106.72,106.73,106.78,106.81,106.82,106.86,106.86,106.89,106.89,106.9,106.88,106.87,106.89,106.92,106.885,106.91,106.91,106.88,106.88,106.9,106.895,106.92,106.94,106.99,106.985,106.98,107.03,107.04,107.028,106.93,106.84,106.88,107.09
2019-04-23,107.036,106.79,106.96,107.3,107.41,107.25,107.6,107.55,107.31,107.21,106.96,106.9,106.84,106.979,106.88,106.993,107.08,107.09,107.04,107.0,106.825,106.65,106.48,106.39,106.24,106.26,106.14,105.89,106.165,106.19,106.15,106.26,106.23,106.19,106.17,106.38,106.22,106.12,106.1,106.085,105.98,106.09,106.1,105.96,105.98,105.905,105.76,105.73,105.64,105.56,105.505,105.615,105.78,105.818,106.05,106.04,106.02,106.34,106.36,106.19,106.16,106.23,106.337,106.33,106.4,106.375,106.42,106.36,106.42,106.47,106.507,106.6,106.66,106.65,106.65,106.66,106.66,106.655,106.65,106.585,106.652,106.62,106.59,106.73,106.79,106.74,106.95,106.87,106.889,106.88,106.96,107.11,107.07,107.11,107.21,107.21,107.21,107.075,107.06,107.1,107.19,107.22,107.23,107.27,107.27,107.4,107.225,107.26,107.245,107.27,107.26,107.21,107.07,106.99,107.06,107.03,106.94,106.91,106.86,106.83,106.84,106.97,106.9,106.75,106.64,106.69,106.73,106.66,106.68,106.83,106.8,106.78,106.743,106.67,106.72,106.73,106.74,106.74,106.715,106.63,106.68,106.83,106.97,106.96,107.03,107.115,107.07,107.02,107.09,107.12,107.12,107.12,107.11,107.2,107.16,107.27,107.31,107.36,107.43,107.36,107.41,107.377,107.39,107.5,107.59,107.6,107.51,107.55,107.388,107.37,107.39,107.33,107.385,107.36,107.38,107.45,107.52,107.56,107.52,107.455,107.5,107.46,107.409,107.39,107.38,107.32,107.37,107.53,107.6,107.63,107.57,107.64,107.59,107.47,107.54,107.6,107.73,107.76,107.6,107.58,107.67,107.7,107.81,107.823,107.73,107.64,107.74,107.82,107.81,107.73,107.7,107.637,107.67,107.73,107.73,107.67,107.65,107.66,107.61,107.57,107.56,107.51,107.57,107.58,107.61,107.61,107.575,107.61,107.615,107.66,107.64,107.61,107.59,107.6,107.44,107.405,107.25,107.37,107.39,107.39,107.43,107.335,107.3,107.315,107.35,107.385,107.4,107.42,107.43,107.45,107.45,107.41,107.418,107.385,107.46,107.44,107.46,107.43,107.43,107.47,107.51,107.54,107.525,107.54,107.55,107.57,107.55,107.59,107.55,107.59,107.57,107.58,107.565,107.63,107.64,107.69,107.71,107.73,107.73,107.72,107.83,107.82,107.82,107.89,107.82,107.82,107.8,107.83,107.87,107.85,107.87,107.88,107.83,107.8,107.52,107.58,107.48,107.5,107.57,107.585,107.47,107.37,107.36,107.34,107.31,107.31,107.28,107.275,107.25,107.28,107.25,107.25,107.23,107.25,107.27,107.31,107.28,107.265,107.23,107.21,107.17,107.15,107.11,107.11,107.11,107.07,107.11,107.18,107.165,107.13,107.16,106.96,106.9,106.82,106.83,106.84,106.81,106.84,106.87,106.78,106.87,106.91,106.89,106.86,106.925,107.02,107.005,106.97,106.95,106.91,106.92,106.9,106.91,106.98,106.98,106.95,106.98,106.98,106.945,106.92,106.975,106.99,106.98,106.96,106.98,106.96,106.95,107.03,106.99,106.989,106.995,106.96,106.964,106.98,106.95,106.94,106.83,106.78,106.85,106.875,106.89,106.94,106.9,106.89,106.89,106.9,106.86,106.865,106.85,106.81
2019-04-24,107.58,107.34,107.13,107.33,107.36,107.34,107.19,107.18,106.85,106.55,106.415,106.26,106.32,106.32,106.21,105.97,105.94,105.965,106.11,106.09,106.03,106.16,106.2,106.235,106.16,106.17,106.089,106.0,106.09,105.91,105.84,105.745,105.53,105.418,105.34,105.16,105.13,105.04,105.09,105.13,105.19,105.09,104.945,105.15,105.17,105.27,105.36,105.49,105.43,105.43,105.67,105.81,105.82,105.84,105.81,105.85,105.87,105.93,105.9,106.04,106.08,105.93,105.87,105.89,105.94,106.03,106.02,105.97,105.99,105.99,105.89,105.73,105.68,105.44,105.65,105.66,105.69,105.83,105.88,105.84,105.79,105.62,105.54,105.54,105.54,105.55,105.64,105.57,105.57,105.52,105.548,105.56,105.545,105.53,105.57,105.55,105.53,105.53,105.52,105.53,105.55,105.56,105.56,105.56,105.57,105.53,105.53,105.52,105.52,105.56,105.52,105.511,105.52,105.53,105.55,105.52,105.54,105.565,105.59,105.69,105.76,105.73,105.63,105.58,105.66,105.7,105.72,105.718,105.66,105.601,105.57,105.56,105.615,105.705,105.77,105.765,105.68,105.59,105.566,105.58,105.62,105.57,105.59,105.63,105.59,105.655,105.63,105.65,105.63,105.63,105.64,105.69,105.705,105.62,105.6,105.57,105.59,105.585,105.61,105.59,105.58,105.56,105.57,105.58,105.58,105.59,105.6,105.57,105.55,105.58,105.55,105.58,105.523,105.665,105.695,105.695,105.65,105.62,105.66,105.57,105.55,105.58,105.53,105.58,105.56,105.51,105.54,105.54,105.54,105.53,105.53,105.52,105.53,105.496,105.49,105.52,105.535,105.49,105.5,105.52,105.54,105.55,105.53,105.53,105.6,105.59,105.61,105.58,105.58,105.82,105.84,105.75,105.69,105.64,105.595,105.6,105.55,105.55,105.51,105.54,105.47,105.48,105.46,105.47,105.47,105.525,105.54,105.5,105.5,105.49,105.48,105.55,105.52,105.51,105.53,105.5,105.51,105.55,105.49,105.53,105.514,105.24,105.25,105.26,105.25,105.2,105.14,105.09,105.07,105.04,105.04,105.06,105.055,105.07,105.05,105.02,105.085,105.13,105.11,105.13,105.095,105.03,105.04,105.03,105.03,105.03,105.04,105.04,105.05,105.04,105.05,105.07,105.145,105.16,105.19,105.23,105.24,105.23,105.27,105.31,105.25,105.31,105.263,105.2,105.18,105.21,105.29,105.305,105.31,105.335,105.32,105.22,105.225,105.23,105.25,105.24,105.24,105.25,105.25,105.237,105.25,105.235,105.24,105.22,105.2,105.15,105.1,105.03,105.07,105.05,105.02,105.04,104.975,104.98,104.96,105.0,105.08,105.11,105.065,105.08,105.08,105.14,105.16,105.14,105.17,105.15,105.125,105.12,105.08,105.07,105.1,105.09,105.05,105.02,105.0,104.985,104.96,104.98,104.96,104.89,104.86,104.82,104.77,104.78,104.78,104.73,104.77,104.76,104.75,104.765,104.735,104.76,104.75,104.75,104.76,104.75,104.735,104.76,104.775,104.75,104.79,104.79,104.755,104.708,104.65,104.64,104.62,104.6,104.56,104.49,104.49,104.405,104.48,104.51,104.59,104.58,104.54,104.52,104.44,104.45,104.42,104.4,104.28,104.25,104.31,104.305,104.18,104.11,104.08,103.97
2019-04-25,104.0,103.85,103.96,103.97,103.86,103.81,103.95,104.13,104.07,104.005,103.93,103.69,103.78,103.89,103.98,103.82,103.785,103.78,103.82,103.78,103.87,104.11,104.06,103.96,103.912,103.87,103.98,103.92,103.91,103.94,103.82,103.81,103.65,103.61,103.76,103.64,103.65,103.67,103.57,103.46,103.4,103.41,103.41,103.39,103.32,103.18,103.14,103.19,103.13,103.18,103.21,103.34,103.38,103.56,103.51,103.65,103.633,103.64,103.6,103.61,103.61,103.4,103.37,103.3,103.22,103.38,103.48,103.5,103.575,103.59,103.55,103.47,103.417,103.44,103.47,103.55,103.58,103.59,103.625,103.72,103.73,103.74,103.72,103.74,103.77,103.53,103.48,103.43,103.39,103.4,103.305,103.28,103.36,103.6,103.75,103.77,103.745,103.82,103.84,103.865,103.76,103.9,103.98,103.99,103.9,103.83,103.74,103.7,103.76,103.85,103.87,104.02,104.01,104.04,104.01,104.03,103.975,103.96,103.97,103.95,103.885,103.79,103.7,103.81,103.81,103.84,103.93,103.99,104.0,104.03,104.03,103.97,103.955,103.89,103.93,103.91,103.97,103.96,104.005,103.97,103.95,104.0,103.94,103.93,104.01,104.01,104.02,104.11,104.1,104.05,104.08,104.06,104.12,104.03,104.0,104.01,103.97,103.9,103.9,103.87,103.96,103.91,103.89,103.89,103.87,103.92,103.94,103.84,103.84,103.83,103.805,103.79,103.82,103.815,103.81,103.81,103.82,103.755,103.75,103.66,103.66,103.645,103.703,103.67,103.68,103.68,103.71,103.69,103.72,103.72,103.76,103.74,103.77,103.7,103.72,103.73,103.69,103.72,103.72,103.71,103.64,103.6,103.59,103.63,103.64,103.63,103.68,103.67,103.67,103.69,103.67,103.69,103.68,103.67,103.669,103.63,103.6,103.667,103.625,103.6,103.63,103.65,103.68,103.68,103.67,103.66,103.575,103.52,103.56,103.62,103.6,103.61,103.57,103.58,103.59,103.61,103.58,103.62,103.635,103.67,103.64,103.65,103.67,103.64,103.65,103.72,103.69,103.67,103.68,103.68,103.68,103.625,103.63,103.62,103.623,103.54,103.64,103.632,103.53,103.54,103.48,103.43,103.4,103.36,103.33,103.33,103.4,103.33,103.3,103.28,103.23,103.22,103.19,103.28,103.25,103.24,103.23,103.18,103.12,103.12,103.1,103.06,103.03,103.046,103.07,103.01,102.98,103.0,103.05,103.13,103.01,102.85,102.89,102.875,102.88,102.89,102.84,102.825,102.85,102.9,102.97,102.97,103.04,103.05,103.06,103.04,102.93,102.915,102.93,102.84,102.71,102.74,102.76,102.74,102.7,102.735,102.74,102.87,102.874,102.88,102.95,102.92,102.92,102.88,102.88,102.9,102.912,102.92,102.88,102.87,102.86,102.85,102.84,102.82,102.84,102.78,102.72,102.75,102.73,102.74,102.71,102.64,102.64,102.64,102.605,102.51,102.47,102.395,102.43,102.45,102.5,102.59,102.59,102.65,102.625,102.68,102.8,102.93,102.97,103.01,103.06,102.92,102.92,102.93,102.87,102.82,102.771,102.82,102.84,102.81,102.86,102.81,102.785,102.8,102.81,102.88,102.85,102.825,102.76,102.62,102.59,102.57,102.59,102.61,102.61,102.605,102.45,102.29,102.17,102.14
2019-04-26,101.54,101.67,102.14,102.12,101.77,101.68,101.36,101.195,101.17,100.825,100.57,100.45,100.37,100.18,100.02,100.25,100.202,100.21,100.42,100.46,100.53,100.79,100.79,100.79,100.71,100.63,100.41,100.51,100.51,100.53,100.33,100.36,100.38,100.255,100.15,100.23,100.09,99.98,99.81,99.63,99.59,99.65,99.563,99.51,99.51,99.635,99.57,99.51,99.4,99.31,99.175,99.11,99.14,99.14,99.22,99.21,99.2,99.07,98.94,99.01,98.98,98.94,98.95,98.96,98.97,98.9,98.82,98.8,98.77,98.69,98.71,98.64,98.58,98.56,98.51,98.75,98.73,98.66,98.73,98.75,98.76,98.66,98.53,98.5,98.45,98.31,98.13,98.0,97.89,97.84,97.78,97.78,97.75,97.67,97.71,97.76,97.77,97.65,97.58,97.61,97.63,97.589,97.65,97.65,97.75,97.94,98.04,97.925,97.95,98.01,98.04,98.04,98.23,98.17,98.19,98.1,98.02,98.075,98.225,98.29,98.3,98.11,98.11,98.025,98.005,97.97,98.06,98.115,98.19,98.26,98.23,98.275,98.26,98.27,98.235,98.125,98.18,98.2,98.19,98.255,98.27,98.08,98.01,97.91,97.98,97.97,97.935,97.745,97.78,97.87,97.9,98.0,97.945,97.92,97.89,97.98,97.99,97.91,97.9,97.905,97.861,97.87,97.86,97.79,97.84,97.89,97.87,97.79,97.87,97.84,97.86,97.85,97.76,97.751,97.63,97.59,97.54,97.485,97.465,97.47,97.45,97.48,97.51,97.49,97.49,97.44,97.443,97.43,97.51,97.56,97.56,97.56,97.615,97.58,97.61,97.65,97.77,97.685,97.615,97.65,97.65,97.67,97.65,97.58,97.58,97.56,97.55,97.53,97.505,97.58,97.64,97.71,97.835,97.84,97.77,97.76,97.765,97.67,97.65,97.72,97.755,97.735,97.735,97.69,97.63,97.59,97.53,97.5,97.44,97.44,97.445,97.45,97.47,97.46,97.43,97.5,97.47,97.39,97.465,97.48,97.48,97.48,97.52,97.555,97.52,97.54,97.45,97.47,97.49,97.51,97.45,97.38,97.54,97.53,97.53,97.58,97.49,97.48,97.48,97.52,97.49,97.45,97.41,97.44,97.41,97.499,97.56,97.587,97.62,97.64,97.67,97.62,97.57,97.485,97.48,97.457,97.44,97.455,97.385,97.38,97.32,97.3,97.31,97.23,97.24,97.35,97.39,97.34,97.34,97.35,97.46,97.52,97.65,97.76,97.75,97.6,97.68,97.72,97.755,97.66,97.63,97.64,97.66,97.64,97.66,97.59,97.49,97.45,97.41,97.485,97.5,97.48,97.45,97.51,97.53,97.46,97.42,97.4,97.43,97.46,97.5,97.55,97.59,97.53,97.52,97.51,97.51,97.53,97.56,97.51,97.483,97.595,97.64,97.6,97.66,97.67,97.75,97.73,97.69,97.705,97.615,97.59,97.48,97.42,97.37,97.4,97.44,97.46,97.45,97.53,97.53,97.51,97.5,97.47,97.52,97.5,97.535,97.486,97.47,97.47,97.48,97.515,97.58,97.495,97.57,97.55,97.69,97.725,97.74,97.76,97.745,97.73,97.72,97.645,97.67,97.68,97.655,97.625,97.635,97.665,97.66,97.66,97.66,97.71,97.835,97.86,98.0,98.1,98.14,98.15
2019-04-29,98.0,98.0,98.2,98.324,98.461,98.36,98.165,98.04,97.65,97.8,97.8,98.04,98.08,98.15,98.03,97.94,98.0,98.1,98.12,98.07,97.93,97.9,97.77,97.67,97.61,97.58,97.55,97.445,97.39,97.29,97.47,97.62,97.76,97.76,97.82,97.86,97.88,97.82,97.63,97.53,97.445,97.49,97.47,97.36,97.26,97.215,97.0,97.16,97.14,97.23,97.22,97.125,97.15,97.14,97.05,97.03,97.005,96.94,96.84,96.88,96.98,97.1,97.14,97.17,97.16,97.2,97.16,97.105,97.11,97.09,97.01,97.03,97.05,97.01,97.04,97.05,97.05,96.99,97.04,97.135,97.14,97.1,97.1,97.02,96.94,97.065,97.034,96.96,96.86,97.0,96.95,96.95,96.97,96.97,97.0,96.97,96.94,96.96,96.97,96.96,96.97,96.96,96.98,96.97,96.93,96.89,96.9,96.87,96.905,96.9,96.9,97.0,97.055,97.07,97.1,97.07,97.22,97.315,97.29,97.25,97.48,97.58,97.56,97.72,97.722,97.692,97.735,97.61,97.71,97.67,97.61,97.52,97.44,97.41,97.39,97.375,97.36,97.39,97.38,97.43,97.39,97.42,97.42,97.41,97.385,97.37,97.37,97.37,97.47,97.53,97.51,97.49,97.53,97.62,97.67,97.67,97.67,97.62,97.68,97.72,97.79,97.77,97.77,97.63,97.67,97.67,97.645,97.65,97.66,97.63,97.63,97.6,97.65,97.65,97.64,97.59,97.58,97.58,97.57,97.6,97.61,97.6,97.535,97.47,97.48,97.51,97.56,97.559,97.6,97.57,97.62,97.62,97.76,97.76,97.67,97.65,97.7,97.8,97.855,97.88,97.87,97.77,97.735,97.72,97.67,97.685,97.6,97.62,97.64,97.65,97.63,97.66,97.65,97.65,97.56,97.53,97.585,97.58,97.66,97.65,97.725,97.725,97.68,97.62,97.65,97.7,97.7,97.63,97.63,97.59,97.61,97.64,97.66,97.655,97.63,97.63,97.6,97.613,97.56,97.61,97.61,97.585,97.58,97.62,97.59,97.585,97.57,97.505,97.5,97.55,97.53,97.51,97.54,97.58,97.565,97.6,97.61,97.59,97.655,97.7,97.7,97.69,97.675,97.675,97.71,97.72,97.66,97.65,97.645,97.705,97.66,97.66,97.69,97.68,97.7,97.6,97.61,97.68,97.68,97.67,97.61,97.595,97.56,97.565,97.58,97.59,97.53,97.55,97.52,97.465,97.53,97.53,97.55,97.56,97.52,97.55,97.49,97.52,97.51,97.52,97.48,97.45,97.55,97.56,97.52,97.48,97.46,97.44,97.43,97.38,97.33,97.35,97.34,97.35,97.33,97.34,97.39,97.38,97.35,97.31,97.24,97.225,97.195,97.165,97.1,97.07,97.0,97.04,96.93,96.95,96.97,97.01,97.01,97.06,97.09,97.09,97.085,97.075,97.08,97.07,97.08,97.08,97.06,97.09,97.09,97.115,97.11,97.06,97.0,97.0,97.02,97.05,97.015,97.03,96.95,96.913,96.86,96.91,96.92,96.98,97.04,97.08,97.08,97.06,97.05,97.09,97.165,97.175,97.19,97.18,97.19,97.215,97.19,97.171,97.2,97.215,97.19,97.22,97.25,97.21,97.225,97.2,97.145,97.15,97.17,97.17,97.16,97.14,97.14,97.17
2019-04-30,98.37,98.38,98.26,98.19,97.81,97.61,97.61,97.505,97.5,97.48,97.38,97.32,97.22,97.295,97.105,97.046,97.02,97.03,97.0,97.06,96.95,97.029,97.02,96.94,96.92,96.83,96.72,96.74,96.74,96.63,96.61,96.61,96.625,96.6,96.56,96.47,96.43,96.44,96.38,96.37,96.44,96.425,96.32,96.26,96.21,96.12,96.02,95.78,95.69,95.63,95.405,95.34,95.52,95.65,95.77,95.9,95.95,95.99,95.9,95.92,95.97,95.99,96.15,96.26,96.31,96.29,96.29,96.237,96.21,96.18,96.19,96.3,96.34,96.24,96.03,96.03,95.895,95.772,95.625,95.65,95.84,95.81,95.86,96.0,95.96,96.09,96.11,96.07,96.145,96.18,96.22,96.12,96.12,96.06,95.86,95.73,95.7,95.62,95.49,95.52,95.5,95.55,95.44,95.37,95.44,95.65,95.63,95.52,95.49,95.585,95.65,95.66,95.8,95.85,95.92,95.95,95.95,95.94,95.92,95.94,96.005,96.06,95.99,95.91,95.98,95.94,95.921,96.06,96.16,96.19,96.175,96.06,95.91,95.88,95.86,95.76,95.656,95.52,95.74,95.85,95.91,95.93,95.95,95.83,95.79,95.88,95.78,95.85,95.89,95.8,95.77,95.75,95.68,95.74,95.68,95.71,95.685,95.63,95.697,95.66,95.69,95.715,95.67,95.66,95.64,95.58,95.59,95.56,95.56,95.56,95.59,95.55,95.51,95.52,95.5,95.53,95.54,95.5,95.5,95.64,95.71,95.71,95.616,95.63,95.59,95.6,95.53,95.505,95.56,95.526,95.5,95.53,95.52,95.485,95.48,95.53,95.51,95.47,95.45,95.445,95.46,95.436,95.431,95.42,95.44,95.45,95.445,95.5,95.53,95.56,95.62,95.61,95.59,95.645,95.61,95.652,95.701,95.71,95.725,95.73,95.68,95.72,95.69,95.67,95.64,95.59,95.584,95.57,95.579,95.52,95.49,95.45,95.48,95.45,95.41,95.375,95.34,95.33,95.3,95.38,95.38,95.39,95.37,95.43,95.42,95.45,95.375,95.34,95.305,95.31,95.27,95.21,95.23,95.24,95.2,95.2,95.195,95.22,95.19,95.2,95.2,95.2,95.19,95.19,95.19,95.17,95.14,95.09,95.09,95.12,95.12,95.09,95.04,95.05,95.03,95.037,95.06,95.04,95.11,95.08,95.07,95.09,95.11,95.12,95.13,95.16,95.105,95.07,95.07,95.05,95.05,95.11,95.12,95.12,95.11,95.17,95.17,95.22,95.24,95.26,95.28,95.27,95.18,95.19,95.25,95.24,95.19,95.24,95.24,95.245,95.22,95.22,95.13,95.15,95.17,95.21,95.24,95.29,95.315,95.4,95.5,95.57,95.58,95.6,95.62,95.57,95.51,95.54,95.555,95.64,95.63,95.625,95.615,95.65,95.7,95.65,95.67,95.66,95.67,95.68,95.68,95.72,95.8,95.795,95.79,95.735,95.79,95.8,95.79,95.8,95.91,95.92,95.93,95.91,95.88,95.81,95.81,95.86,95.94,95.97,95.855,95.835,95.853,95.92,95.92,95.99,96.0,95.94,95.93,95.97,95.93,95.99,96.0,95.94,95.97,95.99,95.92,95.86,95.87,95.875,95.88,95.89,95.93,95.93,95.945,95.99,95.97,95.95,96.0,96.1
2019-05-01,96.04,96.5,96.48,96.3,96.07,95.92,95.97,95.94,95.78,95.715,95.58,95.48,95.385,95.4,95.6,95.844,95.835,95.84,95.832,95.82,95.74,95.76,95.52,95.51,95.42,95.51,95.37,95.26,95.23,95.195,95.09,95.09,94.965,94.95,94.88,95.0,95.07,95.26,95.26,95.26,95.24,95.34,95.29,95.13,95.15,95.17,95.13,95.26,95.22,95.25,95.33,95.35,95.3,95.36,95.34,95.29,95.31,95.23,95.07,95.02,95.01,94.79,94.75,94.77,94.77,94.87,94.92,94.93,94.98,94.99,94.93,94.77,94.83,94.8,94.88,94.9,94.85,94.86,94.83,94.79,94.72,94.58,94.58,94.55,94.51,94.41,94.3,94.42,94.37,94.255,94.2,94.21,94.11,94.115,94.16,94.22,94.22,94.16,94.12,94.09,94.16,94.17,94.16,94.11,94.07,94.03,94.02,93.96,94.03,94.025,94.02,93.96,94.02,94.0,93.99,94.06,94.04,94.0,94.03,94.03,94.001,94.02,93.97,93.96,93.98,93.98,93.97,93.96,94.03,94.035,94.04,94.25,94.26,94.25,94.24,94.19,94.18,94.17,94.135,94.07,94.09,94.15,94.23,94.06,94.1,94.08,94.1,94.105,94.08,94.12,94.05,94.03,93.96,94.015,94.05,94.04,94.02,93.965,93.91,93.85,93.78,93.77,93.77,93.71,93.58,93.65,93.65,93.63,93.565,93.51,93.48,93.57,93.59,93.62,93.671,93.655,93.67,93.685,93.66,93.63,93.62,93.53,93.492,93.47,93.46,93.5,93.495,93.52,93.4,93.39,93.44,93.4,93.39,93.39,93.39,93.34,93.36,93.295,93.28,93.23,93.25,93.22,93.16,93.14,93.19,93.32,93.4,93.4,93.44,93.5,93.59,93.53,93.42,93.45,93.51,93.47,93.42,93.45,93.49,93.42,93.44,93.48,93.45,93.39,93.46,93.54,93.49,93.49,93.45,93.49,93.46,93.42,93.35,93.35,93.38,93.4,93.382,93.335,93.385,93.33,93.31,93.24,93.29,93.32,93.36,93.39,93.41,93.52,93.51,93.57,93.545,93.58,93.591,93.6,93.569,93.45,93.485,93.505,93.5,93.554,93.555,93.52,93.53,93.541,93.54,93.54,93.56,93.54,93.505,93.49,93.55,93.502,93.41,93.45,93.48,93.66,93.71,93.83,93.81,93.68,93.62,93.56,93.63,93.63,93.66,93.59,93.745,93.795,93.87,93.805,93.75,93.75,93.81,93.85,93.87,93.88,93.88,93.8,93.81,93.71,93.76,93.57,93.6,93.52,93.48,93.46,93.47,93.44,93.44,93.31,93.28,93.235,93.21,93.269,93.18,93.15,93.11,93.08,93.15,93.14,93.2,93.24,93.24,93.45,93.48,93.51,93.55,93.56,93.49,93.49,93.58,93.59,93.465,93.395,93.31,93.33,93.37,93.35,93.38,93.34,93.33,93.3,93.31,93.3,93.29,93.32,93.29,93.35,93.31,93.31,93.24,93.23,93.2,93.14,93.11,93.01,93.04,93.0,93.05,93.02,92.98,92.97,92.892,92.87,92.86,92.8,92.83,92.72,92.725,92.715,92.69,92.73,92.8,92.77,92.78,92.679,92.64,92.59,92.56,92.56,92.61,92.59,92.575,92.6,92.62,92.51,92.41,92.35,92.28,92.22
2019-05-02,91.518,91.74,91.345,91.11,91.63,91.71,91.98,91.815,91.86,92.13,92.13,91.81,91.67,91.71,92.0,92.03,91.93,92.15,92.01,91.974,91.95,91.95,91.92,91.695,91.71,91.75,91.75,91.5,91.65,91.595,91.73,91.82,91.795,91.67,91.69,91.73,91.71,91.56,91.54,91.523,91.36,91.35,91.295,91.531,91.53,91.5,91.455,91.4,91.45,91.425,91.5,91.62,91.7,91.71,91.71,91.68,91.72,91.67,91.505,91.44,91.375,91.435,91.53,91.5,91.38,91.36,91.29,91.21,91.065,91.055,91.02,90.96,91.002,91.02,90.9,90.84,90.8,90.77,90.74,90.77,90.71,90.71,90.75,90.77,90.69,90.86,90.8,90.725,90.635,90.65,90.53,90.53,90.57,90.5,90.58,90.54,90.53,90.495,90.46,90.53,90.53,90.46,90.55,90.47,90.46,90.42,90.37,90.29,90.26,90.135,90.08,89.97,90.01,90.02,90.06,90.07,90.03,90.04,89.88,89.81,89.98,89.97,90.05,90.01,89.93,90.04,90.06,90.0,89.91,89.88,89.935,89.93,89.8,89.67,89.73,89.57,89.57,89.713,89.79,89.98,89.9,89.815,89.655,89.65,89.62,89.49,89.465,89.46,89.405,89.47,89.62,89.63,89.61,89.64,89.625,89.86,89.87,89.81,89.815,89.84,89.836,89.85,89.83,89.93,89.9,89.67,89.653,89.64,89.61,89.64,89.53,89.57,89.61,89.69,89.65,89.74,89.82,89.76,89.755,89.83,89.87,90.07,90.05,89.93,89.88,89.86,89.855,89.85,89.89,89.89,89.81,89.8,89.83,89.9,89.84,89.84,89.85,89.84,89.87,89.86,89.8,89.74,89.61,89.6,89.73,89.75,89.7,89.65,89.64,89.76,89.76,89.68,89.599,89.58,89.48,89.55,89.53,89.47,89.49,89.5,89.61,89.6,89.61,89.62,89.65,89.7,89.81,89.794,89.78,89.88,89.93,90.0,90.0,90.01,90.0,90.0,89.98,89.96,89.87,89.92,89.97,89.99,89.94,89.89,89.91,89.92,89.91,89.83,89.9,89.87,89.85,89.82,89.763,89.81,89.84,89.95,89.94,89.81,89.76,89.73,89.75,89.77,89.75,89.74,89.705,89.74,89.77,89.76,89.77,89.68,89.66,89.66,89.58,89.56,89.59,89.61,89.63,89.61,89.72,89.73,89.72,89.6,89.62,89.68,89.77,89.71,89.7,89.77,89.78,89.78,89.7,89.76,89.81,89.95,89.95,89.98,89.95,89.84,89.65,89.66,89.7,89.68,89.71,89.67,89.71,89.63,89.67,89.75,89.79,89.73,89.75,89.75,89.82,89.81,89.87,89.845,89.76,89.71,89.68,89.62,89.58,89.775,89.82,89.81,89.77,89.79,89.87,89.86,89.805,89.76,89.79,89.76,89.83,89.81,89.79,89.8,89.77,89.71,89.71,89.67,89.65,89.68,89.66,89.68,89.64,89.68,89.73,89.725,89.76,89.81,89.755,89.75,89.81,89.82,89.84,89.82,89.81,89.78,89.76,89.84,89.83,89.79,89.74,89.71,89.65,89.62,89.66,89.68,89.74,89.79,89.72,89.63,89.76,89.77,89.82,89.82,89.715,89.81,89.82,89.81,89.76,89.73,89.66,89.625,89.68,89.65,89.52,89.56,89.52,89.48
2019-05-03,92.49,92.39,92.42,92.165,92.29,92.37,91.925,91.55,91.5,91.23,91.3,91.41,91.32,91.25,91.28,91.38,90.948,90.21,90.59,90.78,90.8,90.9,91.08,91.08,91.08,91.14,91.269,91.02,91.01,91.29,91.38,91.06,91.31,91.62,91.71,91.895,91.95,91.96,91.96,91.86,91.81,91.95,91.91,91.96,91.94,91.97,92.08,92.22,92.31,92.49,92.35,92.36,92.49,92.49,92.58,92.7,92.75,92.99,93.16,93.1,92.98,92.95,92.9,92.9,93.0,93.06,92.95,92.97,93.1,93.04,93.09,93.15,93.12,93.06,93.07,93.08,93.08,93.12,93.09,93.05,93.035,93.07,93.005,93.07,93.04,93.05,93.039,93.0,93.02,93.02,92.99,93.035,93.41,93.41,93.31,93.39,93.41,93.35,93.4,93.58,93.62,93.42,93.32,93.32,93.19,93.05,93.06,93.01,92.755,92.75,92.6,92.54,92.71,92.7,92.79,92.95,92.91,92.89,92.85,92.86,92.86,92.82,92.87,92.9,92.93,92.77,92.81,92.86,92.83,92.8,92.8,92.75,92.88,92.85,92.821,92.765,92.77,92.72,92.66,92.69,92.76,92.78,92.81,92.79,92.68,92.75,92.73,92.69,92.7,92.64,92.73,92.71,92.81,92.77,92.78,92.85,92.92,92.94,92.97,92.95,92.93,92.9,92.9,92.77,92.77,92.8,92.83,92.85,92.79,92.79,92.79,92.8,92.815,92.82,92.8,92.78,92.789,92.81,92.8,92.79,92.84,92.9,92.9,92.87,92.76,92.77,92.79,92.79,92.83,92.9,92.95,92.99,93.03,93.06,93.04,93.04,92.9,92.96,93.02,93.02,93.04,93.02,92.955,92.99,92.945,92.74,92.77,92.77,92.79,92.78,92.765,92.8,92.83,92.83,92.73,92.69,92.755,92.77,92.735,92.73,92.69,92.69,92.7,92.684,92.7,92.7,92.68,92.66,92.73,92.68,92.76,92.775,92.76,92.66,92.68,92.77,92.74,92.72,92.61,92.64,92.7,92.69,92.6,92.555,92.41,92.33,92.225,92.17,92.12,92.134,92.18,92.22,92.205,92.21,92.05,92.09,92.11,92.14,92.195,92.23,92.26,92.205,92.16,92.13,92.12,91.94,91.88,91.875,91.88,91.88,91.82,91.775,91.74,91.75,91.75,91.835,91.86,91.87,91.88,91.96,91.92,91.97,92.08,92.07,92.07,92.17,92.18,92.2,92.18,92.15,92.19,92.24,92.305,92.19,92.105,92.045,91.97,91.96,91.91,91.9,91.9,91.84,91.83,91.8,91.79,91.8,91.77,91.735,91.7,91.66,91.7,91.71,91.68,91.74,91.75,91.81,91.82,91.82,91.75,91.74,91.79,91.9,92.05,92.09,92.125,92.18,92.165,92.055,92.01,91.895,91.85,91.85,91.815,91.78,91.81,91.79,91.84,91.91,91.907,91.93,91.94,91.8,91.77,91.78,91.78,91.74,91.705,91.73,91.75,91.7,91.72,91.71,91.69,91.77,91.705,91.76,91.76,91.835,91.87,91.78,91.67,91.68,91.65,91.59,91.67,91.65,91.625,91.555,91.65,91.6,91.7,91.665,91.63,91.485,91.51,91.51,91.47,91.45,91.27,91.31,91.38,91.39,91.42,91.37,91.5,91.54,91.55,91.58,91.57,91.49
2019-05-06,90.47,90.25,90.8,90.745,90.404,90.59,90.29,90.195,90.08,90.28,90.24,90.23,90.25,89.97,90.08,90.04,90.1,90.22,90.18,90.168,90.065,90.05,90.04,90.34,90.51,90.75,90.64,90.775,90.89,90.859,90.9,90.79,90.695,90.71,90.67,90.8,91.0,91.09,91.32,91.37,91.35,91.41,91.45,91.62,91.69,91.59,91.575,91.49,91.54,91.56,91.47,91.46,91.44,91.3,91.24,91.25,91.39,91.37,91.33,91.16,91.08,90.95,90.92,90.849,90.75,90.77,90.74,90.9,90.98,90.953,91.04,91.03,91.02,90.96,90.875,90.82,90.83,90.76,90.685,90.585,90.54,90.68,90.675,90.71,90.68,90.71,90.78,90.91,90.96,90.953,90.945,90.94,90.825,90.836,90.73,90.725,90.57,90.58,90.64,90.5,90.56,90.58,90.54,90.64,90.76,90.83,91.04,91.1,91.031,91.099,91.159,91.16,91.04,90.94,90.95,90.95,91.0,90.99,91.027,91.0,91.08,91.02,90.94,90.87,90.8,90.81,90.89,91.07,91.14,91.147,91.15,91.12,91.13,91.078,90.995,91.13,91.215,91.18,91.14,91.05,91.0,90.93,90.89,90.94,90.947,90.82,90.76,90.65,90.595,90.59,90.58,90.59,90.52,90.52,90.57,90.6,90.57,90.67,90.65,90.71,90.72,90.68,90.72,90.73,90.72,90.749,90.81,90.84,90.8,90.9,90.94,91.0,90.97,90.99,91.0,91.02,90.99,91.01,90.94,90.9,90.86,90.74,90.654,90.655,90.59,90.64,90.625,90.62,90.564,90.67,90.64,90.71,90.76,90.72,90.715,90.72,90.715,90.715,90.69,90.69,90.65,90.64,90.655,90.77,90.75,90.76,90.76,90.78,90.81,90.78,90.7,90.68,90.68,90.69,90.71,90.78,90.8,90.8,90.785,90.63,90.72,90.61,90.68,90.7,90.68,90.81,90.82,90.9,90.91,90.88,90.9,90.88,90.86,90.88,90.91,90.94,90.93,90.98,90.96,90.93,90.91,90.96,90.93,90.885,90.885,90.96,90.93,90.93,90.91,90.93,90.96,90.93,91.01,91.14,91.21,91.22,91.28,91.29,91.28,91.33,91.4,91.42,91.39,91.39,91.38,91.395,91.37,91.34,91.26,91.26,91.21,91.18,91.18,91.23,91.22,91.21,91.235,91.275,91.275,91.34,91.325,91.22,91.31,91.29,91.26,91.23,91.28,91.19,91.17,91.167,91.11,91.17,91.175,91.15,91.157,91.18,91.22,91.26,91.243,91.245,91.302,91.32,91.295,91.265,91.21,91.2,91.25,91.21,91.22,91.32,91.34,91.33,91.4,91.44,91.425,91.44,91.46,91.44,91.59,91.61,91.7,91.72,91.63,91.62,91.6,91.68,91.68,91.67,91.67,91.615,91.65,91.73,91.76,91.8,91.81,91.83,91.82,91.84,91.81,91.71,91.66,91.635,91.645,91.624,91.615,91.55,91.55,91.61,91.64,91.63,91.7,91.7,91.71,91.68,91.8,91.87,91.86,91.82,91.83,91.83,91.76,91.66,91.63,91.53,91.55,91.575,91.565,91.55,91.55,91.44,91.43,91.375,91.27,91.28,91.3,91.27,91.22,91.23,91.23,91.26,91.38,91.43,91.54,91.51,91.42,91.345,91.41,91.39,91.39,91.44
2019-05-07,90.15,90.03,90.01,90.04,90.03,89.96,90.01,90.7,90.705,90.76,90.67,90.7,90.71,90.77,90.72,90.52,90.51,90.5,90.29,90.19,90.03,89.89,90.33,90.31,90.47,90.55,90.7,90.75,90.7,90.775,90.82,90.67,90.63,90.74,90.83,90.87,90.73,90.87,90.88,90.91,90.82,90.9,91.0,91.21,91.23,91.24,91.09,90.95,91.11,91.09,91.295,91.3,91.31,91.28,91.24,91.24,91.343,91.32,91.41,91.45,91.35,91.29,91.17,91.07,90.855,90.646,90.498,90.594,90.71,90.75,90.92,90.95,91.06,91.08,90.92,90.955,90.99,90.83,90.81,90.77,90.67,90.63,90.65,90.72,90.65,90.67,90.64,90.63,90.7,90.61,90.85,90.8,90.58,90.55,90.49,90.55,90.55,90.52,90.55,90.65,90.67,90.74,90.75,90.76,90.76,90.77,90.77,90.76,90.75,90.79,90.67,90.68,90.665,90.72,90.69,90.688,90.77,90.85,90.92,91.01,91.11,91.11,91.16,91.13,90.96,90.845,90.8,90.75,90.73,90.775,91.0,90.88,90.919,90.875,90.87,90.96,90.98,90.91,90.92,90.915,90.835,90.72,90.75,90.77,90.76,90.77,90.71,90.645,90.63,90.56,90.59,90.52,90.59,90.6,90.67,90.67,90.75,90.84,90.835,90.775,90.85,90.84,90.87,90.85,90.81,90.77,90.81,90.795,90.78,90.75,90.79,90.745,90.82,90.81,90.8,90.765,90.76,90.75,90.87,90.9,90.91,90.95,90.97,91.03,90.885,90.93,90.93,90.93,90.97,90.97,90.93,90.9,90.94,90.95,90.91,90.94,90.94,90.94,90.93,90.96,90.94,91.01,91.0,90.966,90.85,90.78,90.72,90.665,90.73,90.74,90.74,90.72,90.73,90.71,90.7,90.67,90.66,90.595,90.49,90.45,90.38,90.45,90.5,90.555,90.552,90.545,90.55,90.6,90.57,90.52,90.4,90.375,90.4,90.38,90.55,90.51,90.46,90.43,90.45,90.41,90.48,90.4,90.37,90.48,90.55,90.53,90.51,90.45,90.43,90.385,90.38,90.34,90.33,90.31,90.29,90.31,90.35,90.42,90.44,90.5,90.54,90.57,90.63,90.71,90.65,90.58,90.63,90.62,90.57,90.59,90.69,90.65,90.65,90.62,90.67,90.76,90.78,90.81,90.8,90.79,90.81,90.8,90.84,90.885,90.84,90.85,90.795,90.715,90.7,90.72,90.71,90.79,90.77,90.755,90.675,90.71,90.665,90.66,90.61,90.62,90.67,90.66,90.47,90.505,90.54,90.62,90.65,90.73,90.73,90.71,90.8,90.815,90.75,90.72,90.65,90.68,90.67,90.67,90.665,90.65,90.67,90.71,90.73,90.8,90.97,91.02,91.02,91.07,91.07,91.07,91.09,91.049,91.05,90.97,90.95,90.97,90.93,90.97,91.05,91.12,91.19,91.24,91.32,91.32,91.3,91.34,91.23,91.3,91.29,91.25,91.21,91.2,91.18,91.16,91.13,91.12,91.07,91.07,91.08,91.09,91.1,91.07,91.11,91.11,91.08,91.05,91.08,91.06,91.03,91.105,91.16,91.23,91.34,91.35,91.44,91.518,91.48,91.49,91.52,91.515,91.485,91.55,91.63,91.7,91.81,91.89,91.8,91.76,91.76,91.8
2019-05-08,91.7,92.01,92.235,92.2,92.45,92.555,92.77,92.93,92.965,92.73,92.83,92.89,92.9,92.85,92.91,93.22,93.32,93.44,93.62,93.535,93.39,93.41,93.66,93.74,93.69,93.32,93.25,93.18,93.22,93.35,93.49,93.51,93.52,93.34,93.46,93.47,93.59,93.63,93.68,93.68,93.67,93.48,93.55,93.5,93.52,93.565,93.49,93.49,93.44,93.384,93.56,93.52,93.59,93.65,93.8,93.735,93.69,93.65,93.64,93.43,93.8,93.74,93.55,93.46,93.45,93.5,93.49,93.54,93.63,93.61,93.66,93.58,93.63,93.68,93.72,93.68,93.82,93.83,93.87,93.85,93.87,93.805,93.82,93.74,93.68,93.7,93.6,93.61,93.643,94.0,94.21,94.19,94.17,94.37,94.37,94.53,94.57,94.655,94.65,94.64,94.43,94.4,94.25,94.45,94.52,94.53,94.53,94.5,94.5,94.44,94.35,94.35,94.3,94.205,94.146,94.07,94.074,94.0,94.0,94.04,94.015,94.04,94.06,94.04,93.96,94.005,94.01,93.974,93.87,93.81,93.75,93.78,93.82,93.8,93.82,93.89,93.92,93.92,93.935,94.01,94.01,93.93,94.01,93.99,94.0,94.01,94.065,94.215,94.145,94.06,94.06,94.03,93.9,93.85,93.84,93.92,93.97,93.95,93.9,93.85,93.76,93.74,93.8,93.78,93.735,93.75,93.78,93.84,93.84,93.79,93.72,93.78,93.84,93.86,93.82,93.84,93.87,93.9,93.93,93.95,93.827,93.75,93.72,93.731,93.67,93.65,93.71,93.745,93.695,93.585,93.58,93.6,93.595,93.54,93.555,93.6,93.62,93.7,93.77,93.78,93.825,93.81,93.805,93.75,93.7,93.69,93.73,93.77,93.79,93.8,93.775,93.79,93.81,93.83,93.81,93.79,93.79,93.835,93.835,93.82,93.81,93.82,93.79,93.78,93.79,93.77,93.71,93.7,93.695,93.65,93.72,93.735,93.8,93.82,93.83,93.79,93.82,93.8,93.775,93.74,93.73,93.71,93.73,93.805,93.81,93.805,93.755,93.82,93.81,93.83,93.84,93.83,93.84,93.84,93.82,93.84,93.855,93.82,93.735,93.78,93.79,93.81,93.83,93.825,93.77,93.74,93.77,93.82,93.8,93.83,93.83,93.76,93.72,93.75,93.76,93.705,93.7,93.74,93.85,93.85,93.8,93.79,93.765,93.695,93.68,93.69,93.72,93.75,93.72,93.68,93.7,93.72,93.77,93.82,93.91,93.99,94.02,94.05,94.05,94.16,94.184,94.15,94.16,94.23,94.25,94.27,94.28,94.2,94.22,94.28,94.3,94.32,94.23,94.23,94.3,94.3,94.18,94.19,94.2,94.23,94.225,94.17,94.19,94.25,94.3,94.3,94.27,94.175,94.265,94.27,94.27,94.25,94.26,94.25,94.15,94.15,94.21,94.25,94.195,94.195,94.215,94.241,94.235,94.36,94.355,94.21,94.14,94.23,94.26,94.36,94.4,94.425,94.38,94.35,94.335,94.36,94.41,94.44,94.46,94.42,94.42,94.435,94.41,94.45,94.42,94.439,94.47,94.47,94.38,94.41,94.43,94.41,94.315,94.305,94.31,94.32,94.31,94.29,94.33,94.3,94.28,94.245,94.27,94.26,94.215,94.16,94.18,94.165,94.17,94.22
2019-05-09,92.68,92.77,92.98,93.005,92.99,92.93,92.84,92.87,93.165,93.29,93.29,93.3,93.22,93.02,92.78,92.69,92.66,92.67,92.62,92.67,92.57,92.32,92.3,92.41,92.48,92.452,92.53,92.501,92.64,92.892,92.87,92.78,92.75,92.76,92.94,92.88,92.86,93.04,93.04,93.06,92.96,92.97,92.94,92.94,92.94,92.94,92.84,92.77,92.67,92.68,92.62,92.71,92.72,92.82,92.79,92.84,92.81,92.86,92.94,93.16,93.18,93.11,93.15,93.12,93.09,93.09,93.01,92.99,92.805,92.8,92.8,92.86,93.19,93.22,93.32,93.31,93.36,93.45,93.495,93.44,93.39,93.53,93.45,93.47,93.46,93.45,93.43,93.48,93.44,93.4,93.49,93.58,93.51,93.51,93.66,93.6,93.6,93.53,93.64,93.64,93.78,93.8,93.76,93.86,93.94,93.89,93.73,93.67,93.59,93.65,93.605,93.5,93.51,93.4,93.4,93.43,93.35,93.225,93.23,93.24,93.35,93.33,93.42,93.48,93.56,93.51,93.55,93.56,93.64,93.66,93.79,93.74,93.67,93.69,93.8,93.79,93.77,93.8,93.82,93.91,93.88,93.882,93.76,93.73,93.93,93.93,93.9,93.87,93.805,93.9,93.99,93.98,93.94,93.9,93.88,93.89,93.86,93.96,94.03,94.02,93.98,93.99,93.98,94.01,94.02,94.0,94.04,94.13,94.15,94.2,94.18,94.03,94.07,94.1,94.09,94.31,94.33,94.27,94.32,94.39,94.4,94.53,94.59,94.57,94.58,94.65,94.71,94.79,94.73,94.83,94.86,94.93,94.87,94.69,94.75,94.77,94.735,94.67,94.605,94.63,94.59,94.565,94.68,94.78,94.76,94.76,94.81,94.83,94.83,94.91,95.02,95.05,95.13,95.07,95.04,95.05,94.98,94.84,94.81,94.81,94.79,94.81,94.71,94.79,94.81,94.79,94.7,94.61,94.59,94.54,94.6,94.55,94.56,94.6,94.555,94.6,94.65,94.6,94.66,94.66,94.68,94.72,94.7,94.67,94.69,94.69,94.71,94.7,94.62,94.65,94.67,94.68,94.68,94.72,94.69,94.62,94.61,94.58,94.719,94.79,94.775,94.72,94.77,94.69,94.645,94.68,94.71,94.77,94.75,94.74,94.85,94.83,94.81,94.65,94.64,94.75,94.82,94.83,94.71,94.83,94.85,94.84,94.81,94.81,94.81,94.81,94.77,94.78,94.755,94.73,94.76,94.79,94.72,94.74,94.77,94.68,94.644,94.53,94.52,94.52,94.46,94.5,94.59,94.59,94.505,94.48,94.48,94.4,94.5,94.45,94.46,94.51,94.52,94.52,94.44,94.38,94.36,94.35,94.34,94.3,94.32,94.38,94.38,94.39,94.37,94.41,94.33,94.26,94.26,94.22,94.23,94.135,94.15,94.2,94.21,94.19,94.15,94.15,94.02,93.93,93.91,93.98,94.02,94.05,94.02,94.059,94.08,94.05,94.04,94.05,94.1,94.13,94.12,94.16,94.2,94.16,94.16,94.16,94.17,94.24,94.3,94.31,94.4,94.39,94.46,94.41,94.33,94.38,94.45,94.41,94.39,94.325,94.28,94.31,94.36,94.33,94.4,94.34,94.35,94.34,94.38,94.36,94.36,94.34,94.39,94.4,94.37,94.35,94.37,94.36
2019-05-10,94.36,94.0,93.96,94.162,94.115,94.17,94.15,94.115,94.21,94.25,94.31,94.26,94.19,94.12,93.95,93.99,93.97,94.05,94.16,94.01,93.81,93.66,93.69,93.85,93.76,93.8,93.8,93.84,93.79,93.75,93.69,93.55,93.74,93.72,93.61,93.49,93.47,93.42,93.475,93.49,93.47,93.51,93.53,93.44,93.37,93.315,93.08,93.03,93.03,92.95,92.96,92.96,92.94,92.92,92.925,93.07,93.21,93.2,93.128,93.15,93.15,93.15,93.14,93.02,93.05,93.05,93.025,92.92,92.87,92.85,92.88,92.725,92.81,92.825,92.89,93.03,93.11,93.19,93.175,93.07,93.12,93.19,93.21,93.22,93.19,93.15,93.17,93.23,93.32,93.24,93.27,93.27,93.21,93.1,93.18,93.33,93.32,93.29,93.22,93.167,93.12,93.11,93.1,93.22,93.27,93.23,93.2,93.35,93.38,93.48,93.547,93.66,93.72,93.69,93.59,93.61,93.63,93.676,93.73,93.64,93.62,93.45,93.47,93.5,93.47,93.47,93.56,93.51,93.7,93.675,93.61,93.68,93.545,93.31,93.44,93.54,93.42,93.43,93.44,93.37,93.33,93.553,93.6,93.63,93.62,93.72,93.63,93.62,93.7,93.72,93.79,93.78,93.75,93.72,93.7,93.7,93.68,93.59,93.59,93.58,93.57,93.63,93.84,93.81,93.82,93.79,93.88,93.86,93.86,93.86,93.88,93.85,93.9,93.96,93.92,93.89,93.95,94.03,94.08,94.14,94.16,94.13,94.21,94.3,94.4,94.35,94.41,94.36,94.255,94.31,94.23,94.165,94.17,94.15,94.22,94.24,94.1,94.22,94.2,94.14,94.17,94.18,94.28,94.32,94.315,94.37,94.33,94.29,94.31,94.35,94.335,94.42,94.51,94.48,94.475,94.444,94.35,94.41,94.41,94.44,94.47,94.41,94.43,94.4,94.36,94.32,94.32,94.3,94.45,94.39,94.51,94.5,94.56,94.44,94.46,94.53,94.52,94.52,94.524,94.52,94.525,94.55,94.58,94.59,94.6,94.64,94.6,94.52,94.54,94.55,94.58,94.62,94.55,94.52,94.59,94.58,94.65,94.585,94.7,94.67,94.64,94.62,94.64,94.64,94.628,94.55,94.56,94.515,94.57,94.62,94.58,94.58,94.68,94.68,94.66,94.67,94.71,94.705,94.735,94.695,94.74,94.75,94.695,94.68,94.6,94.51,94.49,94.47,94.38,94.38,94.32,94.3,94.23,94.19,94.12,94.11,94.16,94.22,94.22,94.24,94.23,94.22,94.28,94.28,94.28,94.28,94.29,94.31,94.4,94.45,94.45,94.425,94.42,94.44,94.41,94.41,94.4,94.44,94.47,94.41,94.48,94.49,94.59,94.59,94.56,94.56,94.54,94.6,94.6,94.71,94.72,94.72,94.77,94.71,94.78,94.82,94.8,94.756,94.7,94.815,94.772,94.785,94.8,94.77,94.85,94.87,94.9,94.96,95.05,95.15,95.15,95.15,95.15,95.15,95.14,95.16,95.25,95.24,95.25,95.24,95.18,95.11,95.04,94.97,94.92,94.825,94.81,94.8,94.78,94.77,94.73,94.7,94.71,94.77,94.64,94.71,94.77,94.78,94.72,94.67,94.73,94.75,94.76,94.84,94.83,94.87,94.87,94.91,94.95,95.05
2019-05-13,94.23,94.5,94.27,94.25,94.37,94.665,94.69,94.615,94.63,94.62,94.62,94.75,94.86,94.71,94.68,94.61,94.6,94.74,94.95,94.86,94.63,94.61,94.55,94.61,94.355,94.34,94.42,94.38,94.38,94.39,94.36,94.286,94.17,94.13,94.24,94.12,94.06,94.1,94.07,93.89,93.78,93.68,93.78,93.81,93.84,93.825,93.92,94.18,94.33,94.25,94.1,94.0,94.0,94.06,94.13,94.33,94.13,94.16,94.27,94.3,94.29,94.48,94.37,94.355,94.42,94.57,94.68,94.72,94.615,94.9,94.95,95.085,95.24,95.3,95.255,95.27,95.25,95.18,95.085,94.91,94.87,94.91,94.88,94.84,94.8,94.796,94.77,94.72,94.74,94.93,94.993,94.953,94.703,94.655,94.545,94.52,94.51,94.72,94.71,94.579,94.505,94.545,94.53,94.46,94.412,94.27,94.26,94.08,94.08,94.12,94.18,94.202,94.195,94.34,94.29,94.13,94.04,93.975,93.98,94.0,94.21,94.05,94.06,94.01,94.088,94.02,93.945,93.905,93.86,93.87,93.83,93.83,93.898,93.903,93.9,93.95,93.945,93.89,93.87,93.91,93.92,93.76,93.78,93.66,93.598,93.67,93.743,93.84,93.78,93.83,93.8,93.86,93.87,93.85,93.81,93.83,93.83,93.81,93.79,93.705,93.82,93.8,93.71,93.84,93.73,93.645,93.65,93.78,93.81,93.815,93.82,93.84,93.91,93.86,93.82,93.88,93.9,93.92,93.9,93.91,93.78,93.68,93.72,93.94,93.89,93.87,93.84,93.98,94.01,94.04,94.015,93.98,93.87,93.83,93.93,93.96,93.99,94.06,94.05,94.07,94.055,94.06,94.1,94.05,94.07,93.95,93.78,93.96,93.99,93.99,93.91,93.8,93.71,93.87,93.89,93.83,93.78,93.839,93.82,93.63,93.65,93.7,93.77,93.85,93.74,93.75,93.69,93.88,93.87,93.83,93.75,93.81,93.8,93.92,93.94,93.87,93.83,93.76,93.74,93.67,93.9,93.93,93.89,93.88,93.815,93.84,93.89,93.93,93.95,94.01,93.92,93.835,93.78,93.74,93.72,93.67,93.63,93.64,93.69,93.71,93.69,93.63,93.65,93.625,93.635,93.73,93.7,93.65,93.67,93.68,93.71,93.716,93.76,93.8,93.84,93.85,93.853,93.94,93.87,93.89,93.89,93.76,93.7,93.7,93.675,93.66,93.57,93.65,93.75,93.76,93.78,93.7,93.635,93.65,93.63,93.983,93.88,93.97,93.903,93.95,93.9,93.9,93.84,93.835,93.76,93.71,93.676,93.66,93.73,93.76,93.713,93.77,93.715,93.65,93.61,93.68,93.71,93.79,93.86,93.81,93.87,93.82,93.83,93.88,93.855,93.89,93.91,93.95,93.98,93.93,93.91,93.89,93.85,93.795,93.73,93.76,93.71,93.745,93.78,93.71,93.7,93.7,93.64,93.65,93.51,93.48,93.57,93.515,93.48,93.41,93.46,93.405,93.36,93.42,93.397,93.37,93.28,93.31,93.39,93.35,93.355,93.35,93.375,93.39,93.41,93.43,93.4,93.43,93.38,93.39,93.47,93.41,93.345,93.38,93.37,93.44,93.396,93.45,93.503,93.5,93.48,93.46,93.49,93.46,93.46,93.57,93.55,93.58,93.63,93.6
2019-05-14,94.132,94.49,94.5,94.68,94.61,94.66,94.58,94.585,94.57,94.48,94.435,94.415,94.535,94.495,94.51,94.67,94.62,94.55,94.62,94.54,94.18,94.19,94.16,94.19,94.13,94.29,94.32,94.395,94.44,94.52,94.58,94.71,94.78,94.755,94.61,94.58,94.69,94.71,94.79,94.73,94.755,94.67,94.73,94.635,94.54,94.63,94.635,94.71,94.81,94.87,94.95,94.91,94.95,94.9,94.91,94.843,94.885,94.94,95.07,95.065,95.07,95.025,95.12,95.22,95.16,95.11,95.08,95.075,95.11,95.145,95.125,95.126,95.13,95.095,95.075,95.09,95.09,95.07,95.084,95.07,94.98,94.97,94.95,94.86,94.78,94.755,94.74,94.65,94.65,94.63,94.66,94.655,94.6,94.55,94.56,94.71,94.85,94.895,94.85,94.74,94.74,94.73,94.81,94.77,94.81,94.83,94.81,94.858,94.99,95.01,95.01,94.98,94.87,94.92,94.97,94.97,94.91,94.9,94.81,94.88,94.82,94.88,94.96,94.86,94.88,94.99,95.03,94.99,94.98,94.93,94.92,94.95,94.99,94.97,94.85,94.89,94.91,94.93,95.02,95.05,95.03,95.03,95.06,95.18,95.15,95.25,95.31,95.189,95.125,95.14,95.105,95.12,95.13,95.18,95.31,95.33,95.32,95.26,95.15,95.2,95.21,95.16,95.09,95.13,95.15,95.12,95.07,95.05,95.02,94.91,94.93,94.96,94.95,94.94,94.86,94.81,94.82,94.89,94.84,94.81,94.86,94.88,94.92,94.97,95.01,94.985,94.98,95.0,95.043,95.07,95.05,95.09,95.09,95.11,95.075,95.06,95.05,95.07,95.05,95.1,95.1,95.09,95.09,95.13,95.19,95.14,95.12,95.16,95.13,95.07,95.13,95.06,95.045,95.05,95.051,95.04,95.09,95.13,95.14,95.08,95.16,95.15,95.25,95.26,95.25,95.27,95.26,95.22,95.23,95.22,95.2,95.14,95.2,95.22,95.21,95.19,95.2,95.19,95.18,95.18,95.19,95.185,95.19,95.13,95.125,95.15,95.15,95.14,95.14,95.05,95.07,95.07,95.01,94.96,94.95,94.926,94.9,94.88,94.89,94.88,94.95,94.93,94.89,94.95,-1.0,94.99,94.995,94.99,94.99,94.94,94.965,94.93,94.933,94.84,94.82,94.83,94.815,94.75,94.77,94.79,94.8,94.86,94.85,94.85,94.87,94.84,94.85,94.85,94.86,94.8,94.8,94.76,94.74,94.8,94.81,94.81,94.77,94.72,94.75,94.74,94.671,94.63,94.63,94.63,94.66,94.66,94.6,94.6,94.62,94.63,94.66,94.67,94.575,94.6,94.6,94.57,94.555,94.46,94.441,94.41,94.36,94.31,94.35,94.35,94.31,94.34,94.35,94.37,94.37,94.37,94.37,94.4,94.43,94.46,94.5,94.475,94.45,94.45,94.46,94.57,94.55,94.47,94.47,94.43,94.415,94.4,94.37,94.31,94.39,94.4,94.42,94.38,94.35,94.32,94.33,94.31,94.42,94.44,94.48,94.5,94.41,94.395,94.37,94.34,94.25,94.25,94.2,94.17,94.195,94.2,94.2,94.19,94.2,94.265,94.265,94.245,94.225,94.28,94.29,94.34,94.34,94.32,94.275,94.24,94.38,94.42,94.32,94.31,94.3,94.34
2019-05-15,93.81,93.93,93.62,93.51,93.7,93.66,93.83,93.88,93.78,93.785,93.97,93.77,93.83,93.738,93.73,93.67,93.75,93.95,93.99,93.869,93.86,93.71,93.74,93.76,93.84,93.875,93.9,93.79,93.719,93.72,93.68,93.58,93.58,93.5,93.535,93.4,93.36,93.45,93.51,93.435,93.49,93.45,93.41,93.64,93.9,93.88,93.75,93.63,93.625,93.69,93.62,93.63,93.62,93.66,93.55,93.68,93.72,93.695,93.66,93.76,93.7,93.68,93.816,93.88,93.87,93.75,93.69,93.75,93.765,93.83,93.88,93.85,93.86,93.87,93.93,94.06,93.99,94.075,94.07,94.03,94.03,94.11,94.15,94.165,94.076,94.13,94.04,93.975,94.01,93.96,93.91,93.82,93.75,93.71,93.74,93.7,93.77,93.82,93.81,93.82,93.91,93.98,94.0,94.05,94.09,94.06,94.14,94.06,94.03,94.095,94.13,94.11,94.05,94.15,94.24,94.34,94.37,94.33,94.35,94.39,94.45,94.33,94.225,94.28,94.33,94.25,94.24,94.16,94.21,94.22,94.28,94.3,94.395,94.345,94.39,94.36,94.28,94.25,94.28,94.29,94.34,94.31,94.3,94.35,94.38,94.325,94.33,94.34,94.41,94.46,94.52,94.54,94.51,94.56,94.57,94.59,94.55,94.51,94.535,94.6,94.535,94.54,94.5,94.49,94.52,94.48,94.41,94.43,94.4,94.39,94.42,94.42,94.42,94.38,94.34,94.34,94.32,94.32,94.442,94.412,94.47,94.49,94.47,94.445,94.5,94.465,94.395,94.36,94.335,94.31,94.29,94.29,94.275,94.31,94.252,94.27,94.23,94.19,94.22,94.25,94.32,94.3,94.28,94.29,94.41,94.45,94.47,94.38,94.35,94.3,94.265,94.29,94.33,94.36,94.36,94.38,94.325,94.33,94.37,94.36,94.32,94.3,94.28,94.27,94.27,94.24,94.24,94.21,94.189,94.18,94.187,94.2,94.18,94.12,94.12,94.11,94.12,94.15,94.15,94.18,94.188,94.26,94.26,94.3,94.37,94.36,94.35,94.38,94.39,94.38,94.4,94.4,94.33,94.34,94.29,94.27,94.21,94.2,94.2,94.2,94.19,94.19,94.21,94.24,94.23,94.25,94.225,94.22,94.2,94.21,94.2,94.21,94.17,94.16,94.23,94.24,94.24,94.235,94.255,94.28,94.33,94.3,94.22,94.215,94.14,94.18,94.28,94.27,94.25,94.23,94.24,94.31,94.33,94.36,94.43,94.37,94.347,94.32,94.29,94.31,94.295,94.245,94.265,94.27,94.29,94.26,94.245,94.17,94.15,94.18,94.175,94.22,94.2,94.321,94.39,94.38,94.38,94.375,94.38,94.41,94.39,94.39,94.38,94.336,94.32,94.24,94.31,94.32,94.24,94.23,94.29,94.275,94.25,94.21,94.158,94.17,94.16,94.15,94.12,94.145,94.113,94.11,94.13,94.135,94.129,94.13,94.2,94.205,94.3,94.325,94.35,94.39,94.36,94.31,94.36,94.39,94.4,94.39,94.42,94.45,94.47,94.48,94.46,94.4,94.445,94.475,94.47,94.51,94.5,94.495,94.51,94.59,94.59,94.6,94.6,94.61,94.6,94.57,94.57,94.57,94.59,94.61,94.63,94.62,94.6,94.6,94.49,94.5,94.5,94.49
2019-05-16,95.45,95.5,95.37,95.66,95.61,95.27,95.53,95.351,95.21,95.41,95.59,95.58,95.75,95.75,95.473,95.27,94.94,95.0,95.17,95.3,95.14,95.26,95.36,95.56,95.7,95.77,95.78,95.71,95.67,95.74,95.63,95.6,95.57,95.56,95.59,95.53,95.5,95.63,95.68,95.6,95.56,95.44,95.38,95.33,95.44,95.51,95.48,95.44,95.4,95.4,95.44,95.43,95.44,95.48,95.54,95.6,95.49,95.44,95.5,95.59,95.67,95.71,95.58,95.552,95.59,95.58,95.61,95.659,95.63,95.78,95.82,95.76,-1.0,95.86,95.8,95.64,95.67,95.73,95.65,95.73,95.74,95.61,95.56,95.7,95.7,95.65,95.629,95.67,95.71,95.75,95.88,95.96,96.09,96.09,96.08,95.88,95.964,96.0,95.95,95.92,95.87,95.91,95.92,95.95,95.896,95.945,96.0,96.05,96.05,96.1,96.05,96.035,96.05,96.115,96.1,96.01,96.006,96.04,96.07,95.99,96.02,96.07,96.06,96.02,96.03,96.02,95.93,95.83,95.91,95.95,95.97,96.05,95.98,96.01,95.975,96.0,95.99,95.94,95.97,95.99,96.05,96.07,95.99,96.07,96.055,96.07,96.105,96.18,96.251,96.25,96.16,96.22,96.17,96.14,96.1,96.06,96.15,96.19,96.16,96.15,96.12,96.05,96.04,96.11,96.09,96.01,95.99,96.06,96.07,96.01,95.96,95.92,95.92,95.915,95.94,95.96,95.93,95.955,95.93,95.88,95.92,95.901,95.96,95.93,95.975,96.0,96.04,95.99,96.03,96.05,95.99,95.99,95.97,95.96,95.96,95.915,95.89,95.87,95.84,95.9,95.874,95.91,95.86,95.89,95.895,95.89,95.91,95.92,95.91,95.94,95.86,95.855,95.803,95.73,95.73,95.7,95.79,95.8,95.83,95.81,95.79,95.83,95.865,95.84,95.78,95.79,95.79,95.74,95.8,95.825,95.8,95.78,95.79,95.79,95.79,95.75,95.77,95.81,95.78,95.78,95.76,95.82,95.82,-1.0,95.81,95.81,95.78,95.722,95.73,95.73,95.7,95.66,95.65,95.627,95.65,95.7,95.68,95.655,95.57,95.52,95.5,95.52,95.485,95.48,95.48,95.495,95.55,95.58,95.6,95.71,95.68,95.69,95.79,95.75,95.72,95.744,95.71,95.67,95.68,95.64,95.6,95.63,95.59,95.63,95.65,95.687,95.66,95.72,95.73,95.77,95.73,95.7,95.71,95.75,95.81,95.8,95.79,95.77,95.73,95.73,95.73,95.7,95.68,95.67,95.65,95.68,95.69,95.73,95.82,95.85,95.84,95.845,95.85,95.87,95.93,95.94,95.94,95.93,95.84,95.84,95.845,95.84,95.79,95.74,95.69,95.65,95.67,95.66,95.62,95.62,95.63,95.6,95.617,95.595,95.65,95.77,95.74,95.685,95.58,95.62,95.6,95.57,95.535,95.489,95.456,95.515,95.49,95.491,95.38,95.4,95.44,95.47,95.522,95.53,95.56,95.57,95.62,95.64,95.635,95.63,95.58,95.565,95.52,95.5,95.49,95.52,95.5,95.48,95.38,95.325,95.295,95.27,95.12,95.1,95.07,95.115,95.145,95.1,95.1,95.11,95.24,95.25,95.27,95.36,95.37,95.38,95.275,95.26,95.29,95.26
2019-05-17,94.56,94.55,94.63,94.63,94.67,94.51,94.59,94.52,94.48,94.39,94.31,94.3,94.376,94.3,94.36,94.53,94.365,94.32,94.375,94.28,94.25,94.02,94.065,93.975,-1.0,94.21,94.18,94.13,94.23,94.25,94.34,94.39,94.29,94.17,94.13,94.11,94.09,94.08,94.09,94.11,94.06,94.06,93.953,93.9,93.835,93.83,93.87,93.83,93.95,93.97,94.04,94.07,94.18,94.205,94.19,94.14,94.055,94.12,94.085,94.07,94.0,93.955,93.94,93.89,93.92,93.85,93.69,93.56,93.56,93.495,93.42,93.41,93.37,93.45,93.475,93.46,93.41,93.37,93.38,93.48,93.733,93.72,93.725,93.84,93.97,94.02,94.09,94.13,94.09,93.94,93.99,93.97,94.0,93.97,94.02,94.12,94.18,94.22,94.26,94.09,94.0,93.97,94.0,94.084,94.13,94.0,94.04,94.115,94.17,94.24,94.31,94.169,94.17,94.13,94.13,94.04,94.02,93.94,93.88,93.847,93.88,93.81,93.795,93.77,93.8,93.78,93.83,93.81,93.8,93.76,93.77,93.7,93.7,93.59,93.54,93.595,93.66,93.615,93.57,93.56,93.57,93.65,93.62,93.67,93.74,93.67,93.71,93.705,93.73,93.8,93.81,93.81,93.807,93.85,93.85,93.8,93.725,93.73,93.69,93.64,93.56,93.51,93.45,93.47,93.47,93.4,93.36,93.335,93.46,93.43,93.43,93.39,93.42,93.43,93.44,93.4,93.37,93.33,93.32,93.25,93.2,93.195,93.11,93.08,93.055,93.1,93.12,93.119,93.14,93.11,93.09,93.12,93.162,93.17,93.12,93.13,93.16,93.09,93.06,93.05,93.05,93.03,93.03,93.04,93.05,93.05,93.0,92.98,92.94,92.89,92.9,92.91,92.92,92.95,92.9,92.93,92.935,92.93,92.96,93.03,93.04,92.97,92.97,92.95,92.93,92.96,93.05,93.06,93.07,93.06,93.037,93.09,93.1,93.1,93.06,93.1,93.08,93.13,93.11,93.13,93.02,93.06,93.17,93.18,93.23,93.32,93.35,93.35,93.34,93.36,93.4,93.37,93.28,93.26,93.282,93.33,-1.0,93.36,93.41,93.45,93.489,93.5,93.5,93.49,93.41,93.39,93.39,93.41,93.45,93.52,93.48,93.46,93.36,93.32,93.31,93.34,93.33,93.34,93.31,93.27,93.23,93.15,93.1,93.13,93.08,93.06,93.03,93.03,93.04,93.05,93.05,93.025,93.05,93.02,93.03,93.03,93.0,92.92,92.91,92.925,92.885,92.9,92.94,92.99,93.06,93.09,93.06,93.18,93.18,93.15,93.08,93.06,93.055,93.081,93.09,93.13,93.12,93.13,93.13,93.14,93.125,93.16,93.22,93.28,93.28,93.3,93.37,93.421,93.37,93.36,93.38,93.36,93.14,93.22,93.13,93.05,92.993,92.98,92.92,92.96,92.86,92.92,92.925,92.83,92.82,92.805,92.8,92.8,92.79,92.8,92.86,92.84,92.83,92.87,92.83,92.8,92.82,92.8,92.86,92.88,92.88,92.81,92.75,92.73,92.78,92.85,92.96,92.94,93.0,92.97,92.93,92.84,92.96,93.04,93.04,93.02,93.01,92.98,93.01,92.965,92.965,93.12,93.13,93.14,93.1,93.215,93.27,93.2,93.17,93.12
2019-05-20,93.23,93.143,93.38,93.31,93.41,93.21,93.2,93.21,93.16,93.03,93.2,93.14,93.3,93.38,93.59,93.81,93.792,93.75,93.66,93.57,93.45,93.42,93.39,93.36,93.29,93.4,93.53,93.8,93.73,93.67,93.78,93.87,93.89,93.82,93.86,93.788,93.73,93.81,93.83,93.979,93.98,94.01,94.06,94.2,94.09,94.19,94.29,94.29,94.23,94.18,94.11,94.11,94.16,94.24,94.3,94.385,94.46,94.29,94.3,94.34,94.3,94.23,94.17,94.26,94.25,94.37,94.36,94.37,94.345,94.38,94.38,94.42,94.44,94.45,94.45,94.42,94.34,94.24,94.33,94.305,94.235,94.38,94.39,94.39,94.51,94.52,94.5,94.47,94.52,94.52,94.47,94.435,94.27,94.23,94.18,94.18,94.13,94.07,94.07,93.99,94.02,94.06,94.16,94.14,94.09,94.095,94.01,94.02,93.98,93.86,93.735,93.8,93.7,93.71,93.84,93.715,93.74,93.78,93.8,93.72,93.96,93.95,93.86,93.92,93.92,93.88,93.8,93.83,93.86,93.85,93.935,93.955,93.91,93.83,93.8,93.9,93.92,93.96,93.9,93.93,93.95,94.0,93.955,94.0,93.99,93.985,93.97,93.96,94.0,94.04,94.09,94.07,94.18,94.1,94.08,94.125,94.11,94.07,94.11,94.03,94.13,94.111,94.08,94.07,94.09,94.1,94.16,94.07,94.07,94.06,94.015,94.03,94.09,94.07,94.06,94.09,94.06,94.0,94.01,94.02,93.987,93.97,93.95,93.92,93.95,94.07,94.09,94.12,94.07,94.07,93.96,93.95,93.97,94.04,93.98,94.02,94.083,94.02,94.02,94.01,93.98,93.99,93.985,94.0,93.95,93.92,94.0,93.865,93.89,93.85,93.81,93.85,93.776,93.75,93.71,93.74,93.78,93.8,93.79,93.78,93.76,93.77,93.74,93.72,93.69,93.67,93.75,93.72,93.72,93.78,93.77,93.725,93.76,93.762,93.71,93.7,93.67,93.65,93.6,93.6,93.59,93.59,93.58,93.614,93.61,93.58,93.58,93.6,93.61,93.57,93.608,93.63,93.61,93.63,93.54,93.58,93.54,93.53,93.58,93.54,93.538,93.465,93.46,93.427,93.39,93.41,93.43,93.37,93.45,93.47,93.43,93.46,93.39,93.342,93.39,93.41,93.45,93.41,93.4,93.37,93.41,93.46,93.51,93.53,93.55,93.5,93.516,93.54,93.537,93.49,93.48,93.51,93.52,93.54,93.52,93.58,93.61,93.609,93.6,93.57,93.59,93.57,93.61,93.53,93.57,93.62,93.6,93.6,-1.0,93.57,93.6,93.61,93.646,93.59,-1.0,93.575,93.58,93.62,93.6,93.63,93.64,93.6,-1.0,93.581,93.61,93.58,93.605,93.6,93.61,93.545,93.53,93.51,93.46,93.45,93.36,93.37,93.43,93.42,93.4,93.4,93.4,93.36,93.4,93.33,93.4,93.4,93.44,93.558,93.51,93.53,93.51,93.56,93.565,93.51,93.483,93.45,93.43,93.43,93.45,93.49,93.5,93.56,93.65,93.64,93.65,93.71,93.74,93.76,93.74,93.765,93.72,93.725,93.68,93.66,93.61,93.63,93.66,93.61,93.6,93.58,93.58,93.56,93.6,93.663,93.69,93.74,93.77,93.78,93.625,93.72
2019-05-21,94.35,94.34,94.41,94.31,94.28,94.24,94.33,94.44,94.44,94.51,94.55,94.72,94.805,94.88,94.82,94.67,94.795,94.84,94.96,95.03,95.02,95.05,95.15,95.065,95.1,95.075,95.14,95.175,95.08,95.05,95.05,95.19,95.23,95.3,95.28,95.19,95.19,95.21,95.21,95.135,95.085,95.08,95.18,95.185,95.065,95.16,95.22,95.195,95.13,95.09,95.07,95.025,94.99,94.962,94.88,94.9,95.04,95.03,94.96,94.91,94.93,94.95,94.87,94.98,95.0,95.005,94.92,94.82,94.79,94.77,94.825,94.75,94.91,94.92,94.91,94.92,94.98,95.03,95.02,94.99,94.91,94.93,94.985,94.968,95.01,94.98,95.0,95.09,95.05,95.075,95.19,95.18,95.12,95.08,95.082,95.24,95.22,95.12,95.05,95.0,94.98,94.96,94.96,94.94,95.01,95.12,95.06,95.03,95.03,95.09,95.1,95.075,95.152,95.18,95.16,95.2,95.21,95.15,95.028,95.05,95.1,95.05,95.06,95.04,95.07,95.02,95.0,94.955,94.89,94.86,94.88,94.91,94.91,94.93,94.9,94.85,94.9,94.92,94.89,94.86,94.81,94.795,94.68,94.64,94.65,94.6,94.72,94.68,94.66,94.74,94.84,94.81,94.84,94.786,94.84,94.89,94.81,94.83,94.83,94.85,94.86,94.91,94.88,94.905,95.0,95.029,94.986,94.97,94.92,94.98,95.03,95.015,95.03,95.015,94.99,94.97,94.98,95.03,95.0,95.01,95.03,95.013,95.03,95.03,95.04,95.03,95.09,95.08,95.04,95.03,95.01,94.99,94.99,95.0,95.03,95.04,95.05,95.02,95.07,95.07,95.1,95.1,95.12,95.04,95.06,95.042,95.0,95.07,95.053,95.04,95.05,95.03,95.064,95.09,95.05,95.04,95.0,94.94,94.955,94.91,94.93,94.94,94.97,94.95,94.95,94.945,94.935,94.94,94.92,94.95,94.93,94.915,94.87,94.9,94.88,94.88,94.91,94.9,94.898,94.91,94.98,94.95,94.94,94.93,94.93,94.98,94.95,94.96,94.97,95.015,95.0,94.973,94.96,94.96,94.93,94.96,95.03,95.03,95.06,95.05,95.05,95.08,95.11,95.061,95.02,95.02,95.03,95.04,95.03,95.005,95.0,95.025,95.1,95.07,95.13,95.14,95.14,95.15,95.18,95.2,95.18,95.17,95.16,95.14,95.17,95.21,95.23,95.2,95.2,95.205,95.2,95.171,95.24,95.26,95.225,95.24,95.21,95.24,95.21,95.24,95.15,95.16,95.21,95.205,95.21,95.22,95.26,95.3,95.28,95.31,95.38,95.45,95.48,95.481,95.49,95.475,95.47,95.52,95.57,95.57,95.57,95.585,95.52,95.56,95.53,95.55,95.49,95.47,95.45,95.47,95.49,95.49,95.43,95.45,95.45,95.45,95.45,95.475,95.51,95.53,-1.0,95.48,95.46,95.46,95.435,95.43,95.43,95.39,95.43,95.45,95.42,95.43,95.405,95.405,95.38,95.4,95.43,95.56,95.58,95.59,95.6,95.68,95.69,95.675,95.66,95.74,95.76,95.8,95.86,95.9,95.94,95.93,95.9,95.87,95.89,95.91,95.88,95.93,95.94,95.9,95.89,95.89,95.9,95.89,95.88,95.84,95.825,95.79,95.81,95.8
2019-05-22,95.02,95.14,95.34,95.38,95.18,95.01,95.04,95.06,95.03,95.05,95.05,95.01,95.1,95.0,95.0,95.08,94.93,94.92,94.98,94.99,95.04,94.95,94.99,94.98,95.03,95.04,95.09,95.05,95.15,95.325,95.295,95.28,95.265,95.24,95.21,95.27,95.22,95.09,95.03,-1.0,94.965,94.95,94.87,94.86,94.79,94.94,94.92,94.87,94.72,94.695,94.67,94.65,94.63,94.73,94.826,94.8,94.76,94.79,94.83,94.81,94.75,94.535,94.55,94.63,94.58,94.51,94.42,94.305,94.27,94.25,94.19,94.2,94.19,94.05,94.01,94.0,94.02,94.07,94.05,93.87,93.93,93.872,93.95,93.856,93.88,93.82,93.8,93.68,93.62,93.75,93.72,93.54,93.54,93.515,93.45,93.5,93.485,93.52,93.56,93.56,93.61,93.58,93.63,93.58,93.54,93.58,93.64,93.674,93.715,93.64,93.63,93.47,93.4,93.42,93.37,93.35,93.34,93.28,93.38,93.41,93.41,93.425,93.43,93.365,93.31,93.22,93.25,93.205,93.13,93.165,93.175,93.17,93.25,93.245,93.25,93.25,93.19,93.27,93.3,93.35,93.41,93.35,93.2,93.2,93.195,93.14,93.085,93.105,93.08,93.03,93.01,92.99,92.9,92.915,92.97,92.855,92.84,92.88,92.88,92.825,92.83,92.85,92.88,92.83,92.81,92.849,92.85,92.82,92.86,92.86,92.85,92.89,92.93,92.93,92.89,92.92,92.89,92.94,93.0,93.02,93.04,92.99,92.9,92.92,92.95,92.89,92.89,92.94,92.97,93.03,93.029,92.85,92.81,92.87,92.87,92.899,92.87,92.73,92.75,92.74,92.74,92.69,92.7,92.71,92.8,92.82,92.941,92.94,92.864,92.9,92.89,92.89,92.84,92.85,92.86,92.69,92.63,92.61,92.66,92.61,92.57,92.65,92.6,92.6,92.58,92.61,92.6,92.6,92.57,92.59,92.66,92.62,92.559,92.6,92.59,92.61,92.65,92.58,92.67,92.73,92.72,92.64,92.63,92.66,92.67,92.69,92.65,92.64,92.69,92.67,92.89,92.83,92.82,92.85,92.84,92.8,92.74,92.74,92.8,92.82,92.86,92.78,92.779,92.77,92.82,92.92,92.95,92.9,92.84,92.85,92.818,92.81,92.79,92.77,92.74,92.67,92.64,92.64,92.66,92.64,92.6,92.59,92.62,92.595,92.59,92.57,92.57,92.545,92.51,92.53,92.59,92.55,92.56,92.62,92.579,92.61,92.71,92.61,92.62,92.58,92.54,92.53,92.63,92.63,92.61,92.66,92.68,92.68,92.71,92.73,92.7,92.69,92.65,92.64,92.62,92.63,92.62,92.68,92.7,92.71,92.74,92.72,92.675,92.66,92.55,92.55,92.57,92.61,92.56,92.43,92.53,92.59,92.535,92.54,92.6,92.7,92.81,92.79,92.84,92.81,92.79,92.78,92.75,92.75,92.77,92.76,92.72,92.68,92.67,92.71,92.74,92.715,92.75,92.87,92.935,92.96,92.94,93.01,92.99,92.96,92.84,92.84,92.88,92.81,92.77,92.76,92.75,92.77,92.77,92.77,92.75,92.745,92.84,92.82,92.84,92.82,92.8,92.8,92.735,92.775,92.86,92.89,92.96,92.96,92.97,92.96,93.0,93.03,93.02,93.08
2019-05-23,91.05,90.5,90.43,90.25,89.83,89.58,89.421,89.41,89.3,89.19,88.88,88.78,88.51,88.4,88.34,88.26,88.59,88.577,88.82,88.777,88.535,88.47,88.71,88.69,88.72,88.44,88.31,88.61,88.69,88.567,88.4,88.41,88.67,88.69,88.73,88.545,88.655,88.6,88.54,88.41,88.27,88.252,88.26,88.12,88.16,88.22,88.145,88.13,88.12,88.043,87.91,87.76,87.71,87.68,87.65,87.56,87.54,87.59,87.54,87.56,87.53,87.54,87.74,87.77,88.1,88.1,88.005,88.08,87.975,87.99,88.05,87.885,88.01,87.9,87.86,87.86,87.98,87.98,87.97,88.1,88.14,88.09,88.11,88.26,88.3,88.25,88.28,88.28,88.25,88.21,88.19,88.13,88.125,88.26,88.39,88.38,88.3,88.39,88.46,88.45,88.4,88.44,88.56,88.64,88.76,88.67,88.643,88.63,88.62,88.6,88.57,88.59,88.55,88.5,88.31,88.44,88.47,88.34,88.31,88.3,88.16,88.13,88.25,88.2,88.18,88.16,88.07,88.22,88.15,88.21,88.15,88.11,88.12,88.13,88.21,88.18,88.12,88.06,88.16,88.2,88.185,88.15,88.21,88.145,88.131,88.02,88.02,88.06,88.09,88.1,88.15,88.09,88.175,88.29,88.305,88.26,88.31,88.26,88.36,88.25,88.315,88.38,88.31,88.37,88.36,88.36,88.29,88.24,88.23,88.21,88.22,88.18,88.12,88.06,88.102,88.18,88.12,88.18,88.15,88.15,88.17,88.16,88.12,88.12,88.18,88.2,88.18,88.175,88.15,88.17,88.131,88.16,88.15,88.16,88.11,88.09,88.19,88.24,88.23,88.34,88.39,88.33,88.36,88.34,88.36,88.35,88.33,88.28,88.16,88.19,88.11,88.07,88.08,88.103,88.07,88.12,88.15,88.18,88.13,88.1,88.08,88.06,88.05,88.02,87.97,87.96,87.91,87.93,87.92,87.84,87.88,87.89,87.83,87.85,87.9,87.88,87.971,87.97,88.05,88.109,88.04,88.075,88.02,88.04,88.091,88.14,88.19,88.21,88.3,88.26,88.265,88.25,88.234,88.24,88.16,88.11,88.09,88.05,88.093,88.085,88.04,88.05,88.05,88.0,87.935,87.89,87.86,87.945,87.97,88.05,88.085,88.06,88.11,87.97,87.935,87.96,87.97,87.97,87.96,88.01,88.04,87.98,87.95,87.91,87.92,87.93,87.96,87.95,87.96,88.0,88.01,88.09,88.159,88.19,88.205,88.18,88.18,88.18,88.18,88.17,88.15,88.12,88.06,88.09,88.15,88.18,88.16,88.15,88.17,88.15,88.11,88.13,88.08,88.0,87.93,87.96,88.0,87.965,87.94,87.86,87.9,87.95,87.96,88.0,88.06,88.08,88.05,88.04,88.077,88.07,88.11,88.09,88.07,87.97,87.96,87.98,87.97,88.02,87.955,87.97,87.96,87.96,87.95,87.958,87.97,88.04,88.14,88.28,88.39,88.35,88.34,88.48,88.53,88.56,88.485,88.47,88.53,88.66,88.655,88.61,88.64,88.7,88.84,88.915,88.97,89.0,89.05,88.993,88.98,88.91,88.88,88.76,88.76,88.65,88.73,88.83,88.76,88.67,88.76,88.76,88.73,88.73,88.73,88.87,88.87,88.84,88.79,88.775,88.74,88.88
2019-05-24,90.4,90.5,90.11,90.02,89.93,89.86,89.68,89.51,89.537,89.553,89.505,89.47,89.39,89.25,89.29,89.27,89.15,89.22,89.13,88.954,88.935,88.94,88.98,88.95,88.92,89.07,89.2,89.12,89.16,89.16,89.209,89.211,89.263,89.31,89.32,89.35,89.26,89.13,89.09,88.995,88.94,89.04,89.04,88.99,89.04,89.075,89.14,89.18,89.13,89.18,89.135,89.12,89.23,89.22,89.16,89.095,89.11,89.15,89.15,89.025,88.99,88.99,88.95,88.8,88.779,88.7,88.57,88.6,88.58,88.53,88.48,88.47,88.41,88.406,88.39,88.51,88.51,88.33,88.3,88.235,88.165,88.105,88.07,88.09,87.97,88.0,87.996,87.96,88.07,88.09,88.02,87.96,87.92,87.96,87.946,87.87,87.82,87.84,87.85,87.665,87.67,87.49,87.475,87.52,87.45,87.42,87.38,87.265,87.425,87.45,87.43,87.41,87.49,87.54,87.53,87.55,87.52,87.52,87.47,87.43,87.55,87.54,87.49,87.54,87.49,87.475,87.48,87.47,87.4,87.39,87.32,87.435,87.44,87.315,87.34,87.365,87.36,87.38,87.35,87.26,87.32,87.31,87.38,87.375,87.39,87.35,87.32,87.28,87.26,87.27,87.23,87.2,87.18,87.17,87.18,87.22,87.22,87.18,87.165,87.16,87.15,87.13,87.12,87.103,87.08,87.07,87.015,86.98,86.97,86.995,87.02,87.02,87.01,87.02,87.005,87.01,87.01,87.02,87.06,87.04,87.03,87.04,87.22,87.25,87.25,87.38,-1.0,87.42,87.4,87.4,87.365,87.33,87.27,87.28,87.257,87.258,87.25,87.27,87.299,87.275,87.199,87.2,87.24,87.204,87.23,87.23,87.185,87.21,87.18,87.275,87.28,87.34,87.305,87.27,87.285,87.26,87.22,87.165,87.17,87.185,87.205,87.205,87.17,87.17,87.18,87.24,87.18,87.28,87.21,87.22,87.16,87.115,87.11,87.11,87.12,87.11,87.115,87.105,87.09,87.075,87.08,87.08,87.075,87.07,87.07,87.02,86.986,87.01,87.08,87.09,87.01,87.005,87.01,87.005,87.01,87.001,87.0,87.0,86.99,87.01,87.01,87.03,87.03,87.013,87.003,86.99,86.94,86.9,86.985,87.005,87.02,86.995,87.015,87.01,87.02,86.99,86.973,86.97,86.95,86.98,86.96,86.94,86.88,86.82,86.82,86.82,86.81,86.753,86.81,86.79,86.78,86.76,86.758,86.75,86.78,86.93,86.97,86.99,86.965,86.91,86.92,86.87,86.91,86.91,86.91,86.8,86.76,86.78,86.79,86.76,86.78,86.78,86.761,86.76,86.77,86.77,86.92,86.94,86.937,86.9,86.91,86.91,86.915,86.94,86.92,86.91,86.907,86.96,86.91,86.94,86.99,86.93,86.98,86.98,86.98,86.945,86.91,86.87,86.875,86.91,86.915,87.019,87.01,87.04,87.05,87.1,87.12,87.09,87.075,86.99,86.97,87.01,87.02,86.95,86.901,86.91,86.93,86.875,86.88,86.98,86.98,87.0,87.0,86.955,86.955,86.96,86.97,86.95,86.91,86.93,86.97,87.0,87.03,87.07,87.09,87.12,87.12,87.27,87.315,87.312,87.26,87.25,87.23,87.18,87.26,87.31,87.22,87.22,87.22,87.22
2019-05-28,87.849,87.89,88.099,88.05,87.868,87.91,88.07,88.0,87.855,87.82,87.91,87.755,88.005,87.99,87.92,87.9,87.98,87.94,88.045,88.13,88.057,88.02,87.95,88.1,88.25,88.29,88.38,88.16,88.14,88.16,88.25,88.2,88.23,88.15,88.07,88.027,88.12,88.14,88.17,88.16,87.94,87.83,87.84,87.93,87.92,87.94,87.99,87.88,87.8,87.76,87.82,87.88,87.91,87.83,87.83,87.775,87.72,87.69,87.62,87.67,87.72,87.695,87.68,87.65,87.608,87.46,87.34,87.32,87.26,87.255,87.14,87.236,87.29,87.31,87.34,87.22,87.32,87.44,87.43,87.475,87.42,87.27,87.125,87.14,87.19,87.15,87.175,87.12,87.195,87.23,87.404,87.45,87.57,87.52,87.46,87.59,87.65,87.76,87.73,87.77,87.73,87.67,87.64,87.8,87.8,87.68,87.7,87.74,87.74,87.81,87.73,87.71,87.73,87.744,87.71,87.75,87.635,87.56,87.55,87.485,87.39,87.34,87.325,87.3,87.39,87.46,87.52,87.47,87.54,87.495,87.64,87.59,87.65,87.67,87.63,87.63,87.59,87.58,87.59,87.51,87.44,87.47,87.44,87.38,87.4,87.31,87.28,87.33,87.4,87.41,87.464,87.44,87.49,87.5,87.48,87.4,87.43,87.445,87.44,87.41,87.35,87.38,87.46,87.54,87.55,87.58,-1.0,87.532,87.65,87.65,87.66,87.65,87.66,87.61,87.64,87.67,87.67,87.69,87.66,87.64,87.65,87.63,87.585,87.5,87.5,87.51,87.515,87.49,87.48,87.47,87.42,87.4,87.43,87.41,87.43,87.345,87.42,87.4,87.477,87.41,87.39,87.39,87.445,87.46,87.39,87.38,87.354,87.353,87.365,87.346,87.365,87.4,87.49,87.57,87.51,87.48,87.58,87.575,87.57,87.59,87.52,87.59,87.64,87.64,87.59,87.6,87.62,87.7,87.66,87.58,87.62,87.58,87.6,87.58,87.6,87.58,87.59,87.63,87.615,87.615,87.58,87.605,87.58,87.62,87.71,87.65,87.77,87.8,87.75,87.7,87.77,87.79,87.77,87.72,87.7,87.68,87.68,87.66,87.69,87.745,87.76,87.78,87.72,87.73,87.66,87.71,87.675,87.6,87.69,87.7,87.67,87.58,87.59,87.53,87.525,87.49,87.462,87.52,87.47,87.47,87.51,87.46,87.41,87.36,87.405,87.427,87.446,87.52,87.52,87.54,87.49,87.5,87.5,87.485,87.45,87.43,87.47,87.48,87.49,87.45,87.4,87.44,87.42,87.44,87.415,87.346,87.28,87.28,87.28,87.26,87.21,87.132,87.12,87.14,87.091,87.13,87.15,87.205,87.23,87.26,87.29,87.36,87.378,87.36,87.405,87.42,87.45,87.445,87.47,87.49,87.47,87.44,87.39,87.39,87.4,87.47,87.61,87.6,87.54,87.48,87.45,87.46,87.41,87.42,87.5,87.553,87.59,87.58,87.57,87.534,87.5,87.51,87.49,87.51,87.5,87.51,87.556,87.54,87.51,87.45,87.4,87.397,87.33,87.31,87.35,87.33,87.3,87.34,87.31,87.33,87.32,87.37,87.36,87.34,87.28,87.3,87.29,87.295,87.335,87.355,87.4,87.35,87.3,87.295,87.33,87.36,87.3,87.28,87.34,87.27
2019-05-29,86.13,86.25,86.25,86.16,86.01,85.77,86.03,86.0,85.76,85.74,85.77,85.74,85.72,85.77,85.79,85.67,85.605,85.58,85.455,85.412,85.361,85.35,85.38,85.29,85.415,85.51,85.53,85.51,85.47,85.46,85.35,85.3,85.3,85.29,85.39,85.39,85.35,85.35,85.26,85.28,85.385,85.35,85.42,85.59,85.642,85.75,85.802,85.84,85.85,85.77,85.785,85.82,85.79,85.8,85.79,85.76,85.87,85.88,85.92,85.88,85.92,85.89,85.88,85.816,85.77,85.8,85.88,85.83,85.81,85.88,85.88,85.79,85.8,85.84,85.89,85.81,85.83,85.86,85.845,85.83,85.84,85.74,85.765,85.74,85.73,85.71,85.76,85.78,85.79,85.75,85.7,85.83,85.78,85.75,85.72,85.63,85.58,85.62,85.65,85.62,85.6,85.46,85.45,85.41,85.34,85.26,85.13,85.2,85.19,85.17,85.09,85.01,84.92,84.85,84.92,84.91,84.98,84.93,84.9,84.93,84.97,85.09,85.09,84.981,85.0,85.05,85.05,84.94,84.92,84.91,84.76,84.7,84.64,84.49,84.5,84.46,84.615,84.53,84.54,84.58,84.61,84.55,84.41,84.35,84.38,84.37,84.455,84.38,84.37,84.37,84.47,84.48,84.47,84.43,84.435,84.48,84.6,84.57,84.63,84.64,84.66,84.72,84.82,84.82,84.83,84.88,84.915,84.89,84.94,84.93,84.855,84.79,84.74,84.72,84.69,84.71,84.79,84.8,84.68,84.74,84.77,84.83,84.83,84.89,84.82,84.83,84.775,84.82,84.91,84.99,84.95,84.93,84.93,84.97,84.99,85.05,85.09,85.09,84.97,84.96,84.97,84.93,84.88,84.88,84.95,84.93,84.98,84.97,85.015,84.95,85.09,85.14,85.195,85.175,85.17,85.21,85.27,85.33,85.54,85.615,85.625,85.74,85.76,85.59,85.533,85.47,85.435,85.49,85.49,85.5,85.54,85.47,85.47,85.47,85.55,85.6,85.54,85.67,85.7,85.74,85.75,85.86,85.91,85.92,85.89,85.92,85.93,86.0,85.93,85.97,85.94,85.92,85.85,85.81,85.83,85.84,85.78,85.77,85.79,85.85,85.89,85.915,85.81,85.73,85.715,85.676,85.7,85.69,85.71,85.67,85.73,85.67,85.66,85.68,85.71,85.72,85.77,85.77,85.765,85.75,85.67,85.72,85.68,85.67,85.59,85.6,85.61,85.61,85.642,85.66,85.66,85.705,85.75,85.73,85.74,85.77,85.79,85.86,85.87,85.92,85.9,85.82,85.8,85.775,85.83,85.81,85.845,85.89,85.9,85.92,85.9,85.82,85.87,85.86,85.75,85.77,85.72,85.74,85.81,85.79,85.76,85.79,85.75,85.75,85.8,85.78,85.87,85.91,85.96,86.0,85.98,85.96,85.92,85.88,85.91,85.88,85.86,85.87,85.9,85.916,85.87,85.91,85.94,85.95,86.0,86.03,86.0,86.04,86.07,86.12,86.105,86.21,86.24,86.2,86.211,86.22,86.28,86.25,86.175,86.21,86.22,86.21,86.15,86.17,86.35,86.423,86.41,86.39,86.37,86.34,86.39,86.44,86.39,86.45,86.47,86.42,86.41,86.425,86.495,86.55,86.52,86.45,86.5,86.48,86.54,86.6,86.56,86.64,86.62,86.61
2019-05-30,86.26,86.26,86.49,86.395,86.21,86.09,86.1,86.16,85.99,85.73,85.87,85.96,86.05,86.04,86.06,86.0,86.03,86.05,86.066,86.02,85.985,85.94,86.03,86.05,85.98,86.04,86.215,86.17,86.08,86.07,85.91,85.943,85.96,85.91,85.87,85.86,85.7,85.65,85.65,85.65,85.66,85.74,85.82,85.74,85.765,85.75,85.81,85.59,85.55,85.42,85.397,85.43,85.434,85.38,85.4,85.41,85.405,85.4,85.37,85.34,85.392,85.31,85.215,85.27,85.18,85.13,85.02,85.11,85.09,85.1,85.05,84.96,84.98,84.95,85.06,85.069,85.03,85.025,85.003,84.93,84.89,84.81,84.81,84.88,84.9,85.09,85.18,85.32,85.4,85.32,85.2,84.84,84.46,84.32,84.58,84.57,84.45,84.38,84.4,84.46,84.43,84.54,84.65,84.73,84.78,84.75,84.66,84.64,84.49,84.41,84.4,84.3,84.195,83.97,83.99,83.98,84.0,84.0,83.925,83.93,84.01,84.06,84.005,84.04,84.13,84.25,84.3,84.4,84.37,84.35,84.4,84.33,84.409,84.27,84.26,84.22,84.21,84.2,84.18,84.11,84.02,83.985,83.9,83.88,83.918,83.96,84.01,83.99,84.06,84.115,84.16,84.12,84.07,84.05,84.1,84.07,84.16,84.17,84.11,84.076,84.06,84.06,84.11,84.03,84.17,84.17,84.24,84.371,84.39,84.38,84.368,84.34,84.31,84.34,84.294,84.27,84.215,84.25,84.27,84.205,84.19,84.18,84.13,84.17,84.24,84.26,84.25,84.34,84.375,84.355,84.39,84.37,84.3,84.31,84.37,84.37,84.4,84.47,84.465,84.45,84.5,84.485,84.49,84.49,84.48,84.47,84.48,84.46,84.45,84.45,84.45,84.43,84.46,84.445,84.44,84.42,84.38,84.34,84.27,84.244,84.245,84.245,84.25,84.21,84.24,84.245,84.31,84.27,84.285,84.24,84.365,84.4,84.39,84.36,84.37,84.42,84.39,84.402,84.44,84.43,84.43,84.32,84.27,84.239,84.24,84.19,84.15,84.15,84.14,84.14,84.12,84.11,84.2,84.21,84.2,84.17,84.17,84.2,84.155,84.14,84.195,84.23,84.32,84.36,84.4,84.43,84.405,84.38,84.371,84.39,84.35,84.45,84.45,84.45,84.43,84.44,84.4,84.365,84.3,84.27,84.3,84.3,84.27,84.27,84.23,84.17,84.14,84.16,84.12,84.17,84.195,84.21,84.17,84.145,84.1,84.09,84.07,84.1,84.15,84.125,84.09,84.06,84.08,84.05,84.08,84.06,84.04,83.99,83.95,83.97,84.06,84.07,84.01,83.96,83.98,83.94,84.015,84.04,83.99,84.04,84.08,84.09,84.06,84.105,84.11,84.2,84.21,84.213,84.18,84.2,84.17,84.17,84.14,84.166,84.17,84.17,84.2,84.04,83.97,84.04,84.04,84.08,84.14,84.15,84.15,84.1,84.07,84.09,84.07,84.1,84.045,84.06,84.02,84.03,84.0,83.971,83.94,83.98,84.03,84.03,83.97,83.96,84.02,84.04,83.99,84.1,84.1,84.15,84.16,84.1,84.08,84.07,84.07,84.05,84.05,84.046,84.06,84.08,84.05,84.03,84.03,84.03,84.05,84.03,84.01,83.96,83.95,83.99,83.93,83.96
2019-05-31,82.7,82.35,82.697,82.93,82.94,82.865,82.88,82.94,82.89,82.93,83.05,83.04,83.13,83.05,83.11,83.34,83.35,83.4,83.45,83.35,83.26,83.09,83.08,83.21,83.12,83.08,83.13,83.045,83.055,83.25,83.28,83.22,83.18,83.2,83.13,83.13,83.03,83.1,83.09,83.06,83.05,83.035,83.03,82.97,82.9,83.03,83.045,83.2,83.21,83.26,83.31,83.4,83.44,83.605,83.63,83.56,83.55,83.56,83.57,83.6,83.65,83.61,83.546,83.67,83.64,83.67,83.8,83.76,83.845,83.83,83.795,83.66,83.64,83.57,83.46,83.53,83.55,83.455,83.4,83.4,83.63,83.59,83.6,83.65,83.625,83.6,83.49,83.47,83.48,83.45,83.44,83.43,83.43,83.42,83.24,83.17,83.11,83.14,83.215,83.25,83.25,83.225,83.21,83.24,83.17,83.21,83.17,83.16,83.18,83.13,83.16,83.22,83.33,83.39,83.45,83.5,83.41,83.37,83.44,83.46,83.445,83.44,83.44,83.34,83.37,83.41,83.435,83.445,83.37,83.38,83.33,83.325,83.36,83.34,83.285,83.24,83.18,83.15,83.12,83.18,83.2,83.225,83.21,83.17,83.09,83.19,83.24,83.25,83.27,83.36,83.32,83.32,83.26,83.228,83.13,83.085,83.17,83.1,83.115,83.13,83.11,83.15,83.14,83.12,83.095,83.13,83.15,83.16,83.21,83.244,83.24,83.22,83.21,83.13,83.145,83.11,83.082,83.09,83.1,83.135,83.12,83.1,83.065,83.11,83.13,83.09,83.09,83.07,83.01,82.98,82.94,82.95,82.93,82.98,82.98,82.91,82.946,82.94,82.933,82.99,83.0,82.99,82.95,82.94,82.97,82.96,82.9,82.905,82.9,82.895,82.91,82.92,82.96,82.96,82.9,82.92,82.91,82.85,82.86,82.86,82.93,82.95,82.91,82.87,82.85,82.86,82.9,82.855,82.86,82.84,82.808,82.75,82.68,82.68,82.73,82.725,82.71,82.675,82.72,82.715,82.695,82.73,82.755,82.75,82.7,82.725,82.72,82.69,82.7,82.63,82.62,82.59,82.6,82.56,82.57,82.55,82.56,82.56,82.625,82.62,82.59,82.55,82.51,82.52,82.53,82.62,82.63,82.59,82.57,82.56,82.56,82.45,82.42,82.4,82.38,82.39,82.39,82.37,82.39,82.395,82.38,82.38,82.3,82.27,82.29,82.26,82.295,82.29,82.28,82.26,82.24,82.23,82.27,82.26,82.25,82.205,82.15,82.18,82.155,82.165,82.16,82.108,82.07,82.09,82.09,82.14,82.15,82.15,82.15,82.12,82.14,82.25,82.27,82.32,82.3,82.38,82.36,82.35,82.345,82.34,82.37,82.42,82.45,82.519,82.46,82.445,82.5,82.51,82.47,82.49,82.41,82.39,82.355,82.32,82.28,82.215,82.16,82.11,82.07,82.05,82.03,82.026,82.03,82.05,82.01,82.04,82.03,82.01,82.0,82.0,82.06,82.06,82.05,81.99,82.01,82.0,81.99,81.94,81.87,81.99,81.95,82.0,81.98,82.01,81.973,81.97,81.97,81.92,81.91,81.94,81.94,81.94,81.95,81.973,81.96,81.95,81.96,82.02,82.13,82.085,82.06,82.005,81.95,81.97,81.965,81.945,81.961,81.97,81.98,82.02
