,09:30,09:31,09:32,09:33,09:34,09:35,09:36,09:37,09:38,09:39,09:40,09:41,09:42,09:43,09:44,09:45,09:46,09:47,09:48,09:49,09:50,09:51,09:52,09:53,09:54,09:55,09:56,09:57,09:58,09:59,10:00,10:01,10:02,10:03,10:04,10:05,10:06,10:07,10:08,10:09,10:10,10:11,10:12,10:13,10:14,10:15,10:16,10:17,10:18,10:19,10:20,10:21,10:22,10:23,10:24,10:25,10:26,10:27,10:28,10:29,10:30,10:31,10:32,10:33,10:34,10:35,10:36,10:37,10:38,10:39,10:40,10:41,10:42,10:43,10:44,10:45,10:46,10:47,10:48,10:49,10:50,10:51,10:52,10:53,10:54,10:55,10:56,10:57,10:58,10:59,11:00,11:01,11:02,11:03,11:04,11:05,11:06,11:07,11:08,11:09,11:10,11:11,11:12,11:13,11:14,11:15,11:16,11:17,11:18,11:19,11:20,11:21,11:22,11:23,11:24,11:25,11:26,11:27,11:28,11:29,11:30,11:31,11:32,11:33,11:34,11:35,11:36,11:37,11:38,11:39,11:40,11:41,11:42,11:43,11:44,11:45,11:46,11:47,11:48,11:49,11:50,11:51,11:52,11:53,11:54,11:55,11:56,11:57,11:58,11:59,12:00,12:01,12:02,12:03,12:04,12:05,12:06,12:07,12:08,12:09,12:10,12:11,12:12,12:13,12:14,12:15,12:16,12:17,12:18,12:19,12:20,12:21,12:22,12:23,12:24,12:25,12:26,12:27,12:28,12:29,12:30,12:31,12:32,12:33,12:34,12:35,12:36,12:37,12:38,12:39,12:40,12:41,12:42,12:43,12:44,12:45,12:46,12:47,12:48,12:49,12:50,12:51,12:52,12:53,12:54,12:55,12:56,12:57,12:58,12:59,13:00,13:01,13:02,13:03,13:04,13:05,13:06,13:07,13:08,13:09,13:10,13:11,13:12,13:13,13:14,13:15,13:16,13:17,13:18,13:19,13:20,13:21,13:22,13:23,13:24,13:25,13:26,13:27,13:28,13:29,13:30,13:31,13:32,13:33,13:34,13:35,13:36,13:37,13:38,13:39,13:40,13:41,13:42,13:43,13:44,13:45,13:46,13:47,13:48,13:49,13:50,13:51,13:52,13:53,13:54,13:55,13:56,13:57,13:58,13:59,14:00,14:01,14:02,14:03,14:04,14:05,14:06,14:07,14:08,14:09,14:10,14:11,14:12,14:13,14:14,14:15,14:16,14:17,14:18,14:19,14:20,14:21,14:22,14:23,14:24,14:25,14:26,14:27,14:28,14:29,14:30,14:31,14:32,14:33,14:34,14:35,14:36,14:37,14:38,14:39,14:40,14:41,14:42,14:43,14:44,14:45,14:46,14:47,14:48,14:49,14:50,14:51,14:52,14:53,14:54,14:55,14:56,14:57,14:58,14:59,15:00,15:01,15:02,15:03,15:04,15:05,15:06,15:07,15:08,15:09,15:10,15:11,15:12,15:13,15:14,15:15,15:16,15:17,15:18,15:19,15:20,15:21,15:22,15:23,15:24,15:25,15:26,15:27,15:28,15:29,15:30,15:31,15:32,15:33,15:34,15:35,15:36,15:37,15:38,15:39,15:40,15:41,15:42,15:43,15:44,15:45,15:46,15:47,15:48,15:49,15:50,15:51,15:52,15:53,15:54,15:55,15:56,15:57,15:58,15:59
2019-04-01,96.12,96.12,95.79,95.575,95.91,95.83,96.14,96.11,95.97,96.26,96.16,96.2,-1.0,-1.0,95.99,-1.0,95.73,95.77,95.79,-1.0,95.82,-1.0,96.14,96.215,96.23,96.07,96.03,95.94,-1.0,95.85,95.94,-1.0,-1.0,96.15,96.41,96.455,-1.0,96.41,96.25,-1.0,96.08,96.07,-1.0,96.26,-1.0,96.19,-1.0,96.1,-1.0,96.06,96.12,96.11,96.17,96.11,96.11,96.065,-1.0,-1.0,-1.0,96.13,96.15,-1.0,-1.0,-1.0,-1.0,96.11,-1.0,96.3,-1.0,-1.0,96.3,-1.0,96.26,96.23,96.245,-1.0,96.24,96.31,96.31,96.41,-1.0,96.4,-1.0,96.34,96.32,96.33,96.45,96.56,-1.0,-1.0,-1.0,-1.0,96.61,96.78,96.73,96.615,96.585,96.52,96.48,96.48,96.475,-1.0,96.61,96.55,-1.0,96.52,96.52,-1.0,96.61,-1.0,96.515,-1.0,-1.0,-1.0,96.35,96.34,-1.0,-1.0,-1.0,96.37,96.32,96.37,96.29,96.2,96.26,96.29,96.25,-1.0,96.14,-1.0,-1.0,-1.0,-1.0,-1.0,-1.0,-1.0,95.97,95.97,-1.0,-1.0,96.04,-1.0,96.1,-1.0,96.27,-1.0,96.19,-1.0,96.35,-1.0,96.36,96.23,-1.0,-1.0,-1.0,96.26,-1.0,-1.0,-1.0,-1.0,96.19,96.23,-1.0,-1.0,-1.0,-1.0,-1.0,-1.0,-1.0,96.24,96.28,96.35,-1.0,-1.0,96.46,96.455,-1.0,96.41,-1.0,96.43,-1.0,96.5,-1.0,-1.0,96.47,-1.0,-1.0,-1.0,96.43,96.5,96.52,96.53,96.5,96.49,96.52,-1.0,96.56,-1.0,-1.0,96.58,-1.0,-1.0,-1.0,-1.0,-1.0,-1.0,-1.0,-1.0,-1.0,96.7,96.7,-1.0,-1.0,96.73,96.74,-1.0,96.675,96.68,96.69,-1.0,-1.0,-1.0,-1.0,-1.0,-1.0,-1.0,96.73,96.71,96.7,96.72,96.69,96.63,-1.0,96.725,-1.0,96.68,96.7,-1.0,96.73,96.74,96.77,-1.0,96.82,-1.0,-1.0,96.92,-1.0,96.77,-1.0,-1.0,96.83,-1.0,-1.0,96.79,-1.0,96.79,96.82,-1.0,96.84,96.86,-1.0,96.89,96.96,96.96,-1.0,96.92,-1.0,-1.0,-1.0,96.91,96.93,96.95,96.935,96.84,96.85,96.86,96.87,-1.0,96.88,96.97,96.99,97.01,97.07,97.01,97.07,97.04,97.095,97.1,97.11,97.11,-1.0,-1.0,-1.0,96.99,-1.0,-1.0,96.84,-1.0,96.81,96.845,96.83,96.87,96.91,-1.0,-1.0,96.93,-1.0,97.02,-1.0,97.01,97.0,96.94,-1.0,96.87,96.86,96.88,96.87,96.82,96.81,-1.0,96.88,-1.0,-1.0,96.81,96.81,-1.0,96.87,-1.0,96.89,96.88,96.91,-1.0,-1.0,96.9,96.91,96.88,-1.0,-1.0,96.82,-1.0,96.83,96.81,96.7,96.71,96.76,96.72,96.72,96.82,96.87,96.88,96.84,96.905,96.92,96.9,96.95,96.88,96.785,96.805,96.835,96.8,96.795,-1.0,96.785,96.78,96.745,96.73,96.76,96.84,96.87,96.8,96.805,96.84,96.86,96.94,96.96,96.925,96.9,96.87,96.93,96.93,96.91,96.91,96.98,96.96,96.94,96.95,96.99,97.03,97.03,96.95
2019-04-02,97.19,97.225,-1.0,97.3,-1.0,97.02,97.12,-1.0,-1.0,97.4,97.29,97.12,97.01,97.085,97.17,-1.0,96.965,97.005,97.01,96.96,96.91,96.85,96.91,96.93,96.95,97.025,97.08,97.29,97.3,97.26,-1.0,-1.0,97.56,-1.0,-1.0,97.665,97.535,-1.0,97.645,-1.0,-1.0,-1.0,-1.0,-1.0,-1.0,97.53,-1.0,-1.0,-1.0,97.56,97.59,97.675,-1.0,-1.0,97.63,97.47,-1.0,97.335,-1.0,-1.0,97.42,-1.0,-1.0,97.39,97.5,97.51,-1.0,-1.0,-1.0,97.15,-1.0,97.11,97.18,-1.0,-1.0,97.025,96.99,-1.0,97.01,-1.0,96.91,-1.0,96.87,96.94,96.97,96.84,96.71,96.65,96.67,96.605,96.67,-1.0,96.43,96.51,-1.0,96.575,96.59,96.51,96.65,96.515,96.53,96.57,96.56,96.445,96.25,96.19,96.25,96.48,96.505,96.485,96.515,96.55,-1.0,96.63,96.685,96.64,-1.0,96.56,-1.0,-1.0,-1.0,96.72,96.62,96.47,96.71,-1.0,-1.0,96.55,96.48,-1.0,96.54,-1.0,96.65,-1.0,96.73,-1.0,96.635,96.69,96.69,96.625,-1.0,-1.0,96.83,96.825,96.87,-1.0,96.83,96.85,-1.0,96.915,-1.0,-1.0,96.87,-1.0,-1.0,96.87,96.92,96.91,96.9,96.89,96.785,-1.0,-1.0,-1.0,-1.0,96.73,96.67,96.64,96.655,-1.0,-1.0,96.65,96.7,-1.0,96.63,-1.0,-1.0,96.48,96.4,-1.0,96.49,96.43,-1.0,96.41,-1.0,-1.0,96.57,-1.0,-1.0,-1.0,96.51,-1.0,-1.0,-1.0,-1.0,96.51,-1.0,-1.0,-1.0,-1.0,96.45,96.415,-1.0,-1.0,96.51,-1.0,96.49,96.48,-1.0,-1.0,-1.0,-1.0,96.44,-1.0,96.41,-1.0,-1.0,-1.0,-1.0,-1.0,96.66,96.57,-1.0,-1.0,-1.0,-1.0,96.56,96.53,-1.0,-1.0,-1.0,-1.0,-1.0,-1.0,-1.0,96.59,-1.0,-1.0,-1.0,-1.0,96.49,96.45,96.42,-1.0,-1.0,-1.0,96.53,-1.0,-1.0,-1.0,-1.0,-1.0,96.47,96.48,-1.0,-1.0,96.37,96.3,-1.0,-1.0,96.22,-1.0,96.33,-1.0,96.315,96.45,-1.0,-1.0,96.35,96.33,96.36,-1.0,-1.0,96.45,-1.0,96.53,96.5,-1.0,-1.0,-1.0,96.45,-1.0,96.51,96.4,-1.0,96.34,96.35,-1.0,96.33,96.315,96.26,-1.0,96.23,96.16,96.22,-1.0,-1.0,-1.0,96.295,-1.0,-1.0,-1.0,-1.0,-1.0,-1.0,96.31,-1.0,96.27,96.26,96.27,96.33,96.33,96.295,96.32,96.31,96.33,96.35,96.305,96.245,96.2,96.21,-1.0,96.21,96.1,-1.0,96.035,96.06,-1.0,96.21,96.165,96.19,96.21,96.265,96.28,96.26,96.34,96.29,-1.0,96.235,96.2,96.21,96.24,96.22,96.24,96.3,96.305,96.24,96.24,96.29,96.29,96.24,96.2,-1.0,96.16,96.245,96.17,96.14,96.165,96.06,-1.0,96.205,96.19,-1.0,-1.0,96.23,-1.0,96.265,-1.0,96.37,96.34,-1.0,96.35,96.38,96.32,96.28,96.24,96.29,96.33,96.335,96.305,96.295,96.29,96.265,96.255,96.27,96.23,96.17,96.145,96.14,96.05
2019-04-03,96.35,96.31,-1.0,96.12,-1.0,95.925,96.28,96.34,-1.0,96.08,96.015,95.99,95.96,96.14,96.135,96.18,96.14,96.185,96.01,96.0,96.13,95.98,-1.0,-1.0,95.955,95.95,95.95,95.845,95.85,95.78,95.65,95.555,95.57,95.43,95.44,95.485,-1.0,95.46,95.605,95.69,95.775,95.84,95.855,-1.0,95.81,95.83,95.985,96.07,96.12,-1.0,96.13,96.055,96.03,96.045,96.05,96.05,95.93,95.87,-1.0,-1.0,95.52,95.55,95.52,95.51,-1.0,-1.0,95.505,95.55,95.575,95.635,95.635,95.94,-1.0,95.94,-1.0,95.865,96.05,96.01,95.98,-1.0,95.99,-1.0,96.13,96.18,96.17,96.29,-1.0,96.09,96.11,96.01,95.995,96.09,96.145,96.23,-1.0,96.265,-1.0,-1.0,-1.0,-1.0,-1.0,95.96,95.87,95.77,-1.0,95.74,-1.0,95.71,-1.0,95.73,95.56,-1.0,95.49,-1.0,95.48,95.485,95.39,95.29,95.47,95.405,95.37,95.43,95.46,-1.0,95.36,95.43,95.33,-1.0,95.26,95.28,-1.0,-1.0,95.23,95.15,95.205,95.195,-1.0,95.13,-1.0,95.2,-1.0,95.31,95.36,95.35,95.29,95.38,-1.0,95.435,95.47,95.345,95.39,95.41,95.385,95.43,95.47,95.49,95.48,95.52,-1.0,95.555,95.56,95.48,95.38,95.32,95.33,95.41,95.33,95.46,95.41,95.4,95.4,95.355,95.35,95.38,95.44,95.445,95.35,95.38,95.3,95.25,95.275,95.32,95.32,95.32,95.145,95.11,95.16,-1.0,95.1,95.13,95.18,95.18,95.21,95.065,95.04,94.885,94.865,-1.0,94.885,94.85,94.825,94.86,94.84,94.8,94.78,94.73,94.77,-1.0,94.73,94.64,-1.0,-1.0,94.7,-1.0,-1.0,94.73,-1.0,94.68,-1.0,94.68,-1.0,-1.0,94.68,-1.0,-1.0,94.57,-1.0,94.52,94.51,-1.0,94.56,94.56,94.6,94.6,94.58,-1.0,-1.0,94.57,94.57,94.53,94.575,-1.0,94.52,-1.0,-1.0,94.51,-1.0,-1.0,94.51,-1.0,94.44,-1.0,94.355,94.355,94.39,94.37,94.36,94.33,94.36,94.29,94.275,94.26,-1.0,94.255,94.26,94.2,-1.0,94.125,94.045,94.13,94.13,94.09,94.05,93.92,94.01,94.0,94.005,-1.0,93.89,-1.0,-1.0,93.91,-1.0,-1.0,-1.0,-1.0,93.83,-1.0,93.82,93.8,93.83,93.96,93.95,94.0,93.98,94.03,-1.0,-1.0,-1.0,94.23,94.17,94.2,-1.0,94.21,94.19,94.18,-1.0,-1.0,94.265,94.24,94.225,94.27,94.25,94.14,94.155,94.165,94.19,94.17,94.195,94.185,94.185,-1.0,-1.0,94.4,94.39,94.36,94.32,94.36,-1.0,94.35,94.28,94.29,94.34,94.35,94.34,94.36,94.34,94.33,94.32,94.25,94.22,94.21,94.13,94.15,94.195,94.14,94.16,94.14,94.22,94.24,94.2,94.12,94.26,94.15,94.11,94.22,94.28,-1.0,94.315,94.4,94.355,94.32,94.345,94.31,94.355,94.245,94.31,94.33,94.28,-1.0,-1.0,94.3,94.33,94.35,94.375,94.36,94.32,-1.0,94.27,-1.0,94.31,94.27,94.17,93.99,93.995,93.995,93.985,93.89,93.85,93.83
2019-04-04,-1.0,-1.0,93.68,93.89,94.11,94.315,94.27,-1.0,94.27,94.37,94.33,94.24,94.2,-1.0,94.16,-1.0,-1.0,93.77,93.73,93.6,93.61,93.78,93.82,93.975,93.87,-1.0,-1.0,93.635,93.635,93.65,93.58,93.58,93.575,93.62,93.545,93.52,93.545,93.56,93.505,93.515,93.46,93.46,93.54,93.54,93.49,-1.0,93.46,-1.0,-1.0,-1.0,93.53,93.55,93.62,93.59,93.61,93.59,93.445,-1.0,-1.0,-1.0,-1.0,-1.0,93.25,93.23,93.2,93.03,-1.0,93.09,93.0,-1.0,92.97,92.95,92.945,93.0,93.0,93.265,93.275,-1.0,93.26,93.27,-1.0,93.27,93.25,93.19,-1.0,93.15,-1.0,-1.0,93.07,93.09,93.06,93.0,93.115,93.05,93.14,93.16,93.2,93.27,93.23,93.195,93.16,93.285,93.37,93.33,93.41,93.37,93.27,93.205,93.21,93.17,92.97,93.035,93.015,-1.0,93.05,93.26,93.275,93.265,93.34,93.33,93.325,93.23,93.205,93.31,-1.0,93.31,93.34,93.53,-1.0,93.64,93.58,93.6,93.67,93.67,93.57,93.71,93.71,93.68,93.71,93.68,93.62,-1.0,93.655,93.68,93.7,93.705,93.7,93.665,93.7,93.71,93.75,93.735,93.705,93.69,93.72,93.7,93.675,93.7,-1.0,-1.0,93.615,93.54,93.53,-1.0,93.42,93.32,93.29,93.21,93.2,93.28,93.385,93.46,-1.0,93.63,93.58,93.49,93.47,93.525,93.53,-1.0,-1.0,93.57,-1.0,93.46,93.41,93.56,93.53,93.49,93.47,93.46,93.49,93.46,93.43,-1.0,93.57,-1.0,-1.0,93.49,-1.0,93.495,93.59,93.59,-1.0,93.67,93.65,93.675,93.68,93.66,-1.0,93.59,-1.0,-1.0,93.55,-1.0,93.4,93.51,-1.0,-1.0,-1.0,-1.0,93.49,-1.0,-1.0,-1.0,-1.0,-1.0,-1.0,93.47,93.56,93.57,93.55,93.55,-1.0,93.56,93.59,-1.0,-1.0,93.53,93.555,93.54,93.58,93.55,-1.0,-1.0,93.59,-1.0,93.69,93.69,93.64,-1.0,-1.0,-1.0,93.59,93.585,93.57,-1.0,-1.0,93.65,93.53,93.49,93.455,93.57,93.57,93.63,93.74,93.62,93.605,93.63,93.645,93.62,93.59,93.59,93.6,93.595,93.6,-1.0,93.6,93.61,93.64,93.67,93.68,93.64,93.65,93.66,93.67,93.655,93.68,93.645,93.65,93.66,93.655,-1.0,93.65,93.63,-1.0,93.485,-1.0,93.56,93.46,93.5,93.48,93.45,93.6,93.655,93.64,93.69,93.72,-1.0,-1.0,93.645,93.66,93.62,93.56,93.545,93.505,-1.0,93.48,93.43,93.4,-1.0,-1.0,-1.0,93.29,93.385,-1.0,93.405,93.405,93.41,-1.0,-1.0,93.47,93.43,-1.0,-1.0,-1.0,93.4,93.45,93.42,93.315,93.38,93.38,-1.0,-1.0,-1.0,93.43,-1.0,-1.0,-1.0,93.51,93.51,-1.0,-1.0,93.425,-1.0,-1.0,-1.0,93.46,93.41,93.4,93.39,93.42,93.4,93.43,93.455,93.5,93.47,93.5,93.52,93.545,93.51,93.5,93.535,93.475,-1.0,93.465,93.52,93.57,93.64,93.62,93.54,93.56,93.61,93.58,93.6,93.55,93.58,93.58,93.6,93.56,93.55
2019-04-05,-1.0,94.43,-1.0,94.63,-1.0,94.46,94.63,94.67,94.63,94.585,94.55,-1.0,94.69,94.65,94.64,-1.0,-1.0,95.05,-1.0,95.26,95.34,-1.0,95.345,95.265,95.35,95.18,95.235,95.37,95.39,95.39,95.6,-1.0,95.66,95.65,-1.0,95.95,96.0,96.1,96.19,96.21,96.13,96.23,96.25,-1.0,-1.0,96.355,96.32,96.36,96.35,96.41,-1.0,96.51,96.56,96.56,96.53,96.55,96.595,96.465,96.38,96.44,96.4,96.37,96.69,96.56,96.595,96.57,96.58,96.66,96.62,96.61,96.57,-1.0,96.58,96.64,96.67,96.71,96.765,96.785,96.855,96.85,96.83,96.925,96.945,97.05,97.03,97.065,97.1,96.99,96.925,97.03,96.975,97.07,97.12,97.035,-1.0,96.91,97.01,-1.0,97.15,97.165,97.14,97.23,97.27,97.34,97.41,97.42,97.365,-1.0,97.43,97.39,97.51,97.63,97.56,97.55,97.53,97.33,97.225,97.065,97.05,97.08,97.04,96.92,96.91,96.86,96.72,96.77,96.96,96.95,96.9,96.85,96.975,96.99,-1.0,-1.0,-1.0,-1.0,-1.0,-1.0,-1.0,97.08,-1.0,-1.0,97.09,-1.0,-1.0,97.25,97.215,-1.0,-1.0,-1.0,-1.0,97.17,-1.0,-1.0,97.07,97.06,97.05,-1.0,97.11,97.11,-1.0,97.15,97.17,97.18,97.15,-1.0,-1.0,-1.0,97.18,97.18,97.21,97.26,97.16,97.18,-1.0,97.285,97.33,-1.0,97.33,97.37,-1.0,-1.0,-1.0,-1.0,-1.0,-1.0,-1.0,97.26,97.155,97.14,97.19,97.18,-1.0,97.21,97.27,-1.0,97.42,-1.0,97.42,97.39,-1.0,-1.0,97.57,-1.0,97.62,97.61,97.69,97.76,97.75,97.76,97.78,-1.0,97.85,97.86,97.89,97.9,97.87,97.86,98.02,98.05,98.08,98.02,98.0,98.01,98.02,98.01,97.97,98.06,98.08,98.1,98.07,98.13,98.17,98.24,98.22,98.17,-1.0,98.19,98.21,98.19,98.18,98.19,98.06,-1.0,-1.0,-1.0,-1.0,-1.0,98.22,98.34,98.31,98.29,98.25,98.24,98.23,98.12,-1.0,98.16,98.2,98.205,98.22,98.25,98.21,98.225,98.26,98.22,98.265,98.29,-1.0,98.34,-1.0,98.43,98.4,98.32,98.425,98.49,98.48,98.3,98.28,98.26,98.24,98.19,98.22,98.31,-1.0,98.295,98.42,-1.0,98.5,-1.0,98.36,98.25,-1.0,-1.0,98.27,98.23,98.23,98.24,98.385,98.4,-1.0,98.39,98.33,98.28,98.33,98.305,98.24,98.25,98.25,98.31,98.35,-1.0,98.395,98.41,98.36,-1.0,98.25,98.22,-1.0,98.18,98.19,98.2,-1.0,98.14,98.155,98.165,98.17,98.25,98.32,98.31,98.37,98.365,-1.0,-1.0,98.48,98.57,98.41,98.39,-1.0,98.34,98.39,98.355,98.39,98.44,98.45,98.395,-1.0,98.41,98.45,98.41,98.43,98.45,98.48,-1.0,98.4,98.4,98.4,98.435,98.47,98.44,98.42,98.54,98.51,98.55,98.53,98.48,98.42,98.45,98.45,98.435,98.49,98.52,98.49,98.4,98.425,98.41,98.47,98.5,98.47,98.43,98.42,98.41,98.43,98.425,98.47,98.52,98.58,98.62,98.615,98.64
2019-04-08,99.075,99.405,99.75,99.825,99.95,99.755,99.85,99.69,99.555,99.445,99.59,100.04,100.12,100.4,100.13,100.29,100.67,100.77,100.9,100.785,100.82,100.71,100.71,100.76,-1.0,100.61,100.195,100.31,100.08,100.17,100.05,100.07,100.06,100.09,99.985,99.88,100.085,100.035,100.015,99.94,100.04,100.0,-1.0,100.01,-1.0,100.15,100.16,100.2,100.41,100.53,100.46,100.3,-1.0,-1.0,100.4,100.38,100.29,100.19,100.35,100.27,100.145,100.14,100.06,100.08,100.135,100.06,100.17,100.27,100.27,100.28,100.33,100.35,100.34,100.25,100.21,-1.0,100.07,100.11,-1.0,100.075,100.105,100.21,-1.0,-1.0,-1.0,100.29,100.17,100.17,100.16,100.15,100.18,100.12,99.975,-1.0,99.965,100.0,99.94,99.985,-1.0,-1.0,99.92,99.93,99.77,99.77,99.6,99.56,-1.0,99.36,-1.0,99.29,99.13,99.16,99.21,-1.0,99.17,99.17,99.17,-1.0,99.24,-1.0,99.39,-1.0,-1.0,99.5,-1.0,-1.0,-1.0,99.375,99.48,99.41,99.37,99.325,99.37,-1.0,99.38,99.41,-1.0,99.48,99.445,99.545,99.47,-1.0,99.39,99.48,-1.0,-1.0,99.415,-1.0,-1.0,-1.0,99.36,-1.0,-1.0,-1.0,-1.0,-1.0,99.35,99.255,99.17,99.19,99.19,-1.0,-1.0,-1.0,99.1,-1.0,99.23,-1.0,99.39,99.39,99.31,-1.0,-1.0,99.34,99.325,99.35,99.37,99.44,-1.0,99.415,99.35,99.35,99.2,99.24,99.105,99.165,99.22,99.22,-1.0,-1.0,99.26,99.47,99.46,99.44,99.48,99.54,99.57,99.53,-1.0,99.405,99.47,99.49,99.51,-1.0,99.51,-1.0,99.61,99.63,-1.0,99.59,-1.0,-1.0,99.425,99.47,99.44,99.41,99.39,99.425,99.45,99.46,99.48,-1.0,-1.0,99.46,-1.0,99.36,-1.0,-1.0,-1.0,99.39,-1.0,-1.0,-1.0,99.43,-1.0,-1.0,-1.0,-1.0,99.4,99.32,99.275,99.3,99.41,99.36,99.37,-1.0,99.29,-1.0,99.415,99.415,99.43,99.46,99.41,99.465,99.405,99.44,99.48,99.505,99.505,99.4,99.5,99.52,99.41,-1.0,99.5,-1.0,99.455,99.44,99.48,-1.0,-1.0,99.45,99.355,99.395,99.465,99.46,99.3,99.29,99.35,99.35,99.36,-1.0,-1.0,-1.0,-1.0,-1.0,-1.0,-1.0,-1.0,99.34,-1.0,99.29,99.275,99.245,-1.0,-1.0,99.285,99.27,99.33,99.26,99.26,99.25,99.27,99.32,99.38,99.35,-1.0,-1.0,-1.0,-1.0,-1.0,99.25,-1.0,-1.0,99.24,99.25,99.27,99.26,-1.0,99.275,99.31,-1.0,99.37,99.415,-1.0,-1.0,99.42,99.44,99.42,-1.0,99.33,-1.0,99.28,99.31,99.32,-1.0,-1.0,-1.0,99.24,-1.0,-1.0,-1.0,-1.0,99.395,-1.0,99.25,99.32,-1.0,99.35,-1.0,99.48,99.465,99.445,99.465,99.38,-1.0,99.405,-1.0,99.405,99.36,99.3,-1.0,-1.0,-1.0,99.34,99.35,99.44,99.46,99.495,-1.0,99.38,99.405,99.39,-1.0,99.36,99.35,-1.0,99.35,99.36,99.35,99.38,99.41,99.345,-1.0,99.36,99.31,99.29,99.235,99.255,99.15
2019-04-09,-1.0,98.61,-1.0,-1.0,97.99,97.875,97.555,97.635,-1.0,97.615,97.93,97.86,-1.0,97.88,97.94,97.92,-1.0,98.07,98.06,-1.0,-1.0,-1.0,-1.0,98.17,-1.0,98.28,98.17,98.23,98.25,98.13,98.13,98.15,-1.0,97.76,97.685,97.745,97.67,-1.0,97.685,-1.0,97.61,97.75,97.76,97.735,97.61,97.77,-1.0,97.625,-1.0,97.595,97.555,97.6,-1.0,97.63,97.68,97.88,98.04,98.01,98.01,98.05,97.97,97.87,97.78,-1.0,-1.0,-1.0,-1.0,-1.0,98.075,97.84,-1.0,97.78,-1.0,-1.0,97.62,97.685,-1.0,97.68,97.65,-1.0,-1.0,97.53,-1.0,-1.0,-1.0,-1.0,97.59,97.51,97.57,-1.0,97.73,-1.0,-1.0,97.71,97.76,-1.0,-1.0,-1.0,97.78,-1.0,97.61,97.59,97.53,97.525,97.59,97.65,97.74,97.77,97.7,97.59,97.61,97.7,97.7,97.7,97.6,97.625,-1.0,97.72,97.74,97.74,97.71,97.85,98.1,-1.0,98.0,97.95,-1.0,98.07,98.02,98.12,-1.0,98.115,98.145,-1.0,98.21,98.25,98.32,98.34,98.33,-1.0,98.39,98.465,98.54,98.59,98.55,98.68,-1.0,98.655,98.665,98.65,98.7,98.795,98.78,98.81,98.85,98.86,-1.0,-1.0,98.93,99.02,-1.0,99.01,99.02,-1.0,99.14,99.17,99.17,-1.0,99.23,99.205,99.25,99.23,99.27,99.21,99.29,-1.0,99.32,99.33,-1.0,-1.0,99.28,-1.0,99.35,99.36,99.375,99.4,99.325,-1.0,-1.0,99.37,99.41,-1.0,99.42,99.55,99.5,99.5,99.515,99.44,99.39,99.36,99.3,99.25,99.2,99.14,99.09,99.07,99.04,-1.0,-1.0,98.95,-1.0,98.99,-1.0,98.99,98.96,98.935,98.92,98.95,99.0,-1.0,99.0,99.065,98.995,98.99,98.99,98.985,98.95,98.995,98.95,98.91,98.91,-1.0,98.89,98.84,-1.0,-1.0,98.83,98.82,98.84,-1.0,98.78,-1.0,98.67,98.65,98.65,98.645,98.66,98.69,98.69,98.82,98.865,98.93,98.93,98.91,-1.0,-1.0,-1.0,-1.0,-1.0,-1.0,98.87,98.89,-1.0,98.86,98.84,98.8,-1.0,98.89,-1.0,-1.0,98.85,98.845,98.81,-1.0,98.8,-1.0,98.79,-1.0,-1.0,98.7,-1.0,98.61,98.65,98.57,-1.0,98.73,-1.0,98.72,98.71,98.72,98.72,98.71,98.71,-1.0,98.69,98.67,98.68,98.77,98.775,-1.0,98.745,98.755,98.72,98.715,98.69,98.68,98.675,98.64,98.71,98.67,98.66,98.64,98.6,98.59,98.595,98.52,98.5,98.42,98.42,98.465,98.53,98.515,98.435,98.44,98.53,-1.0,98.495,98.47,98.335,98.385,98.34,98.48,98.495,98.495,98.54,98.54,98.48,98.45,98.45,98.495,98.5,98.495,98.53,98.545,98.535,98.54,98.51,98.5,98.43,98.435,98.3,98.31,98.35,98.34,-1.0,98.33,98.27,98.25,98.32,98.4,98.34,98.455,98.46,98.49,98.495,98.525,98.54,98.5,98.5,98.56,98.575,98.6,98.605,98.575,98.6,98.555,-1.0,98.65,98.68,98.67,98.66,98.65,98.62,98.63,98.59,98.5,98.5,98.45,98.42,98.47
2019-04-10,-1.0,-1.0,99.03,99.535,99.7,-1.0,-1.0,-1.0,-1.0,-1.0,99.47,-1.0,-1.0,99.67,99.49,99.63,99.715,99.78,99.66,99.715,99.71,99.575,99.535,99.55,99.535,99.47,99.39,99.45,99.49,99.34,99.43,99.38,99.425,99.4,99.22,99.28,99.305,99.195,99.095,99.15,99.15,99.165,99.24,99.23,99.05,99.11,99.06,-1.0,98.99,99.035,99.02,99.055,-1.0,-1.0,98.965,98.95,98.915,-1.0,98.89,-1.0,-1.0,99.05,98.98,98.93,-1.0,98.98,99.0,-1.0,98.83,98.805,98.815,98.93,99.1,98.96,-1.0,98.81,98.79,98.81,98.865,98.77,98.8,98.725,98.77,-1.0,98.785,98.79,98.94,98.83,-1.0,98.87,-1.0,98.865,98.88,98.97,98.96,98.94,98.97,98.98,99.01,98.99,98.93,98.92,-1.0,98.8,98.825,98.915,98.93,98.83,98.78,-1.0,98.755,98.81,98.8,98.78,98.86,98.96,98.905,98.835,98.8,98.83,98.905,98.955,98.93,98.955,99.05,98.975,98.945,-1.0,98.85,98.79,98.83,98.77,98.83,98.85,-1.0,98.87,98.91,98.94,-1.0,98.88,98.855,98.84,98.835,98.9,98.95,99.01,99.015,99.025,-1.0,99.02,99.13,99.16,99.17,99.16,99.17,99.225,99.25,99.33,99.395,-1.0,-1.0,-1.0,99.45,99.335,99.19,99.21,99.28,-1.0,99.395,-1.0,99.55,99.52,99.5,99.58,99.53,99.54,-1.0,99.45,99.42,99.34,99.305,99.28,-1.0,99.305,99.3,-1.0,99.32,-1.0,-1.0,99.41,99.38,99.35,99.36,99.37,99.34,99.33,99.33,99.26,99.25,99.25,99.24,99.25,99.27,99.245,-1.0,99.25,-1.0,99.18,99.18,-1.0,99.175,99.14,99.12,99.14,99.09,99.175,-1.0,99.12,99.095,99.115,99.2,-1.0,99.15,99.09,99.2,99.17,99.1,99.08,99.11,99.15,99.165,99.13,99.045,-1.0,99.14,-1.0,99.08,99.055,98.93,-1.0,-1.0,-1.0,-1.0,98.94,98.96,98.98,-1.0,-1.0,-1.0,-1.0,-1.0,-1.0,-1.0,-1.0,98.97,98.935,98.935,-1.0,-1.0,98.94,98.955,98.91,-1.0,98.87,98.86,98.82,98.835,98.835,98.82,98.79,98.835,-1.0,98.86,-1.0,98.75,98.79,-1.0,-1.0,98.78,-1.0,98.725,-1.0,-1.0,98.625,98.61,98.65,98.605,98.625,98.6,98.47,98.525,-1.0,98.525,-1.0,98.5,98.53,98.49,98.485,-1.0,98.51,-1.0,98.51,98.5,98.415,98.485,-1.0,98.56,98.62,98.6,98.665,-1.0,98.715,-1.0,-1.0,98.7,-1.0,-1.0,98.73,98.75,98.74,98.74,-1.0,98.7,98.69,-1.0,98.69,-1.0,-1.0,98.7,98.7,98.71,98.74,98.93,98.9,98.985,98.965,98.985,98.95,98.95,98.975,98.865,98.85,-1.0,98.85,98.85,98.835,-1.0,98.78,-1.0,98.72,-1.0,98.62,98.695,98.69,98.69,98.68,-1.0,98.775,98.815,98.83,98.85,-1.0,98.83,98.86,-1.0,98.79,98.765,98.775,98.73,98.71,98.72,98.71,98.675,98.62,98.605,98.6,98.595,98.58,98.565,98.58,98.59,98.535,98.49,98.475,98.43,98.425,98.48,98.565,98.595,98.62
2019-04-11,98.64,-1.0,-1.0,-1.0,97.9,98.07,98.09,98.04,-1.0,98.105,-1.0,-1.0,97.94,-1.0,98.21,98.3,98.59,98.86,98.915,-1.0,98.91,-1.0,99.05,99.05,98.98,98.91,98.9,-1.0,98.95,99.07,99.16,-1.0,-1.0,-1.0,99.24,99.33,99.19,99.175,-1.0,99.15,99.14,99.15,-1.0,99.25,99.26,99.43,99.41,-1.0,99.525,99.52,-1.0,99.72,99.64,99.65,99.65,99.59,99.66,99.45,-1.0,-1.0,-1.0,99.41,99.38,99.45,99.47,-1.0,99.37,-1.0,-1.0,99.54,-1.0,99.58,99.45,99.44,99.41,99.44,99.49,-1.0,99.34,99.23,99.29,99.265,-1.0,99.25,99.22,-1.0,99.01,99.035,-1.0,98.96,98.865,98.905,-1.0,98.59,98.69,98.59,98.595,98.735,98.81,-1.0,98.75,98.77,98.86,98.985,99.05,99.12,99.12,-1.0,-1.0,-1.0,98.73,98.74,98.68,-1.0,98.58,98.6,98.635,98.61,98.55,98.62,98.545,98.5,98.575,98.53,-1.0,98.55,98.39,-1.0,98.45,98.44,97.98,97.95,98.02,98.07,98.135,98.14,-1.0,-1.0,98.23,-1.0,-1.0,98.1,98.05,97.96,97.97,-1.0,98.135,98.165,98.08,-1.0,97.93,-1.0,-1.0,98.0,-1.0,98.005,98.05,98.155,98.045,-1.0,98.05,98.02,98.08,98.1,98.17,-1.0,98.08,98.025,-1.0,98.09,-1.0,98.005,97.94,-1.0,98.055,98.09,97.98,97.8,97.71,97.7,97.755,97.755,-1.0,97.795,97.75,97.67,-1.0,97.855,-1.0,97.845,97.835,97.67,-1.0,97.83,-1.0,-1.0,-1.0,-1.0,98.11,98.07,-1.0,98.18,98.32,98.27,98.31,98.405,-1.0,-1.0,-1.0,-1.0,98.42,98.475,-1.0,98.5,-1.0,98.46,98.5,-1.0,-1.0,98.505,98.5,-1.0,98.46,98.43,-1.0,-1.0,-1.0,98.46,98.49,-1.0,98.54,-1.0,98.62,98.75,98.89,98.83,-1.0,98.52,98.61,98.73,98.7,-1.0,98.65,-1.0,98.78,98.81,98.7,98.64,-1.0,-1.0,-1.0,-1.0,98.545,98.545,-1.0,98.585,98.64,-1.0,98.81,98.85,98.89,98.89,-1.0,-1.0,-1.0,98.88,-1.0,98.855,98.865,98.87,-1.0,-1.0,-1.0,98.845,-1.0,-1.0,-1.0,98.865,-1.0,-1.0,-1.0,-1.0,-1.0,98.98,-1.0,-1.0,99.01,-1.0,99.025,-1.0,-1.0,98.895,98.81,98.8,-1.0,-1.0,-1.0,-1.0,98.87,-1.0,-1.0,-1.0,98.91,98.87,98.87,-1.0,-1.0,-1.0,-1.0,-1.0,98.73,-1.0,-1.0,-1.0,-1.0,-1.0,98.825,-1.0,98.83,98.83,98.81,-1.0,-1.0,98.88,-1.0,98.735,98.69,-1.0,-1.0,-1.0,98.66,-1.0,98.725,98.73,-1.0,98.91,-1.0,-1.0,-1.0,98.85,-1.0,98.83,-1.0,98.82,-1.0,-1.0,98.88,98.935,98.91,-1.0,-1.0,-1.0,-1.0,-1.0,-1.0,98.81,98.78,-1.0,-1.0,-1.0,98.77,-1.0,-1.0,-1.0,-1.0,-1.0,98.79,98.78,98.79,98.78,-1.0,-1.0,98.73,98.72,98.71,98.71,98.73,98.68,98.69,98.75,98.825,98.82,98.825,98.85,98.87,98.93,98.93,98.89,98.91,98.75
2019-04-12,102.125,102.35,102.355,103.03,103.13,102.98,102.88,103.03,103.065,-1.0,-1.0,103.6,103.69,103.84,103.75,103.88,103.74,103.75,103.525,103.51,103.53,103.515,-1.0,103.71,103.74,103.745,103.78,103.58,103.42,103.39,103.19,103.08,102.825,102.86,102.9,102.92,102.74,102.71,102.67,102.705,102.97,-1.0,102.96,102.87,102.9,102.88,102.88,-1.0,102.72,102.75,102.76,102.85,102.9,103.18,103.35,103.35,103.32,103.415,-1.0,103.38,103.16,103.18,103.3,103.075,103.11,103.02,102.94,103.01,102.96,-1.0,102.73,102.68,102.66,102.62,102.66,102.74,102.85,102.77,102.685,102.75,102.82,102.83,-1.0,102.89,-1.0,103.03,102.88,102.97,-1.0,102.94,-1.0,103.015,102.9,103.06,103.01,-1.0,102.78,102.72,102.8,102.9,-1.0,-1.0,-1.0,-1.0,102.89,-1.0,-1.0,102.85,102.83,-1.0,102.8,102.745,102.88,102.875,102.95,102.83,-1.0,102.95,102.915,102.92,102.9,102.88,102.87,102.9,-1.0,-1.0,-1.0,102.92,-1.0,103.0,102.925,-1.0,-1.0,102.92,102.96,-1.0,-1.0,102.94,-1.0,102.865,-1.0,103.07,103.1,103.3,103.25,103.24,103.3,-1.0,-1.0,103.39,103.35,-1.0,103.35,103.295,103.29,103.375,103.26,103.29,103.35,103.41,103.4,103.33,103.32,103.32,-1.0,103.29,103.34,103.39,103.37,103.44,-1.0,103.435,103.34,103.27,103.22,-1.0,103.29,103.25,103.275,103.34,-1.0,103.43,103.455,-1.0,-1.0,-1.0,103.34,103.39,103.45,103.45,103.51,103.7,103.74,103.77,103.83,103.95,103.94,103.94,103.91,-1.0,103.99,103.985,104.04,104.02,104.165,104.22,104.305,104.28,104.46,-1.0,104.625,104.66,104.725,104.71,104.77,-1.0,104.695,104.72,104.6,104.54,104.74,104.76,104.59,104.645,104.665,104.64,104.7,104.685,104.745,104.77,104.75,104.745,104.75,104.745,104.81,104.83,104.83,104.95,104.98,105.0,104.98,105.065,105.085,104.985,104.97,105.045,105.15,105.24,105.23,105.33,105.445,105.44,105.49,105.49,105.505,105.575,105.27,105.18,105.15,105.18,105.3,105.31,105.31,105.32,-1.0,105.43,105.45,105.4,105.455,105.505,105.55,105.55,105.64,105.67,105.7,105.76,105.72,105.675,105.705,105.7,105.67,105.72,105.77,105.735,105.74,105.8,105.94,105.97,106.0,105.91,105.9,105.615,105.62,105.68,105.68,105.58,105.56,105.455,105.49,105.47,105.71,105.98,-1.0,105.77,105.74,105.82,105.82,105.67,105.68,105.54,105.5,105.38,105.36,105.22,105.165,105.11,105.12,105.12,105.125,105.17,105.11,105.23,105.0,105.03,105.085,105.165,105.16,105.175,105.16,105.33,105.29,105.43,105.59,-1.0,105.7,105.72,105.835,105.79,105.895,105.92,106.01,106.01,106.03,106.225,106.29,-1.0,106.295,-1.0,106.24,106.04,106.07,105.76,105.65,105.91,105.61,-1.0,105.525,105.5,105.53,105.715,105.62,105.59,105.54,105.595,105.63,105.63,-1.0,105.405,105.455,105.48,105.49,105.47,105.48,105.46,105.4,105.4,105.37,105.38,105.31,105.325,105.295,105.31,105.28,105.2,105.2,105.3,105.37,105.39,105.33,105.275
2019-04-15,-1.0,-1.0,104.0,103.88,103.67,103.44,103.38,103.31,103.385,103.45,-1.0,103.52,-1.0,102.87,102.92,102.75,102.85,102.71,102.84,102.83,102.96,102.93,102.92,102.74,103.03,103.09,103.01,103.09,103.52,103.4,103.34,103.43,103.695,103.69,103.625,103.61,103.7,103.56,103.8,103.64,103.54,-1.0,103.49,103.48,-1.0,103.285,103.55,103.505,103.32,103.34,103.33,103.235,103.27,103.27,103.29,103.29,103.22,103.285,103.19,103.13,102.83,102.84,102.63,102.72,102.85,102.67,102.705,102.83,102.655,102.63,102.6,102.555,102.64,102.49,-1.0,-1.0,102.48,102.39,102.34,102.375,102.48,102.56,102.57,102.47,102.54,102.615,102.62,102.57,102.55,102.575,102.65,102.47,102.39,102.305,-1.0,102.245,102.21,102.215,102.33,102.34,-1.0,-1.0,102.49,102.45,102.395,102.49,102.31,102.215,102.105,102.01,102.15,102.06,102.055,-1.0,102.12,101.985,-1.0,101.965,101.95,102.12,-1.0,-1.0,-1.0,102.27,102.275,-1.0,-1.0,102.32,102.37,-1.0,102.385,102.44,-1.0,102.35,102.425,102.4,-1.0,102.49,102.38,102.3,102.28,102.205,102.255,102.335,102.34,102.21,102.35,102.34,102.305,102.29,102.135,-1.0,102.125,102.09,102.15,102.22,102.35,102.24,102.27,102.18,-1.0,102.225,102.23,102.15,102.185,102.185,102.165,102.24,102.11,102.105,102.2,-1.0,-1.0,-1.0,102.15,102.15,102.1,102.115,102.1,-1.0,102.105,-1.0,102.05,-1.0,-1.0,-1.0,-1.0,-1.0,102.07,-1.0,102.165,102.13,102.195,-1.0,-1.0,102.045,102.12,-1.0,102.12,102.15,102.19,102.13,102.125,102.11,-1.0,-1.0,102.18,-1.0,102.19,-1.0,102.2,-1.0,102.25,102.31,-1.0,102.25,102.3,102.27,102.25,-1.0,102.15,-1.0,-1.0,102.1,102.08,-1.0,-1.0,102.06,102.015,102.09,102.085,102.155,102.165,-1.0,-1.0,102.25,102.25,102.27,-1.0,102.345,-1.0,102.41,102.33,102.345,102.3,102.32,102.29,102.37,102.41,102.41,102.37,102.38,102.46,-1.0,102.4,102.41,102.46,-1.0,-1.0,-1.0,102.415,-1.0,102.41,102.44,-1.0,-1.0,102.415,102.335,-1.0,102.36,102.46,102.5,-1.0,102.49,-1.0,-1.0,102.435,102.45,-1.0,102.41,102.45,102.405,-1.0,102.46,102.44,-1.0,102.48,102.49,-1.0,102.48,102.45,102.43,102.32,-1.0,102.305,-1.0,-1.0,-1.0,-1.0,102.22,102.23,102.08,102.04,-1.0,-1.0,-1.0,-1.0,101.84,101.82,101.84,101.68,101.61,101.5,101.5,101.49,101.48,-1.0,-1.0,101.53,101.5,101.44,101.58,101.615,101.7,101.7,101.6,-1.0,101.71,-1.0,101.705,-1.0,101.71,101.71,101.76,101.7,-1.0,101.75,-1.0,101.72,101.68,101.76,-1.0,-1.0,101.66,-1.0,-1.0,101.74,101.66,101.675,-1.0,101.71,-1.0,101.68,-1.0,101.65,101.68,101.69,-1.0,101.7,101.65,101.68,101.68,101.675,101.68,101.75,101.73,101.73,101.735,101.75,101.785,101.78,101.79,101.74,101.73,101.68,101.625,101.69,101.76,101.805,101.905,101.9,101.89,101.895,101.94,101.93,101.925,101.905,101.9,101.88,101.885
2019-04-16,-1.0,101.97,101.89,101.86,101.845,101.81,101.67,101.56,101.465,101.39,101.57,101.28,101.25,101.2,101.42,101.42,101.6,101.69,-1.0,101.39,101.225,-1.0,-1.0,101.175,101.27,101.31,101.325,-1.0,101.31,101.29,101.27,101.355,101.4,101.47,101.46,101.4,101.385,101.35,101.42,101.44,101.38,101.445,101.78,101.66,-1.0,101.54,101.55,101.52,101.49,101.52,101.595,101.645,101.685,-1.0,101.69,101.68,101.675,101.76,101.84,101.99,102.1,102.04,101.95,101.92,101.9,101.925,101.97,102.02,102.0,101.96,101.975,101.985,101.98,101.98,101.925,101.86,101.89,101.905,101.88,-1.0,101.79,101.77,-1.0,101.88,101.93,101.85,101.87,-1.0,101.83,101.59,101.62,101.55,101.56,-1.0,101.48,-1.0,101.41,-1.0,-1.0,101.37,101.46,101.63,101.65,-1.0,-1.0,101.84,-1.0,101.64,101.665,101.57,101.555,101.515,101.57,101.6,101.51,101.47,101.55,101.545,101.54,101.56,-1.0,101.485,-1.0,101.58,101.57,101.58,101.625,101.59,101.57,101.52,-1.0,101.59,-1.0,-1.0,-1.0,-1.0,101.68,101.65,101.71,-1.0,101.845,101.865,101.89,101.89,101.925,101.925,101.985,102.03,102.025,-1.0,102.0,102.03,101.985,102.0,102.095,102.1,102.15,102.12,102.135,102.1,102.08,102.09,102.11,-1.0,-1.0,102.08,102.15,102.14,102.14,102.18,-1.0,102.11,102.13,101.975,101.92,-1.0,102.01,101.98,-1.0,102.02,102.03,-1.0,102.075,102.135,102.155,102.17,102.19,102.16,-1.0,102.035,102.04,102.02,102.04,102.03,-1.0,102.1,102.105,102.14,-1.0,-1.0,102.1,102.07,102.08,101.92,101.99,-1.0,-1.0,-1.0,102.0,101.97,-1.0,-1.0,102.02,101.99,102.035,-1.0,102.08,-1.0,-1.0,-1.0,102.03,102.03,102.03,102.02,101.97,-1.0,-1.0,-1.0,102.005,102.03,102.05,102.085,-1.0,102.005,102.035,102.0,102.0,101.96,101.96,-1.0,-1.0,-1.0,-1.0,101.95,101.95,101.93,-1.0,101.86,101.9,101.94,101.95,101.965,-1.0,101.9,-1.0,101.86,101.86,101.95,101.98,102.01,-1.0,102.03,102.03,102.045,101.965,101.92,101.91,101.9,101.91,101.92,101.915,101.875,101.915,101.93,101.87,101.92,101.975,101.995,102.005,102.03,102.07,-1.0,102.135,102.15,102.15,102.15,102.24,102.29,102.315,102.38,102.475,102.485,102.52,-1.0,-1.0,102.6,102.66,102.68,-1.0,102.735,102.77,102.67,-1.0,-1.0,-1.0,-1.0,102.64,-1.0,-1.0,-1.0,102.73,-1.0,-1.0,-1.0,102.585,-1.0,-1.0,-1.0,102.52,102.52,-1.0,102.56,-1.0,-1.0,-1.0,102.55,102.55,102.55,-1.0,-1.0,-1.0,-1.0,102.5,102.49,102.455,102.435,102.435,102.43,102.44,102.51,102.5,102.47,102.465,102.46,102.49,102.495,102.475,102.445,102.4,102.34,102.34,102.36,102.35,102.4,102.43,102.43,102.43,102.39,102.435,102.49,102.505,102.52,102.63,102.55,102.495,102.385,102.47,102.43,102.37,102.34,102.28,102.37,102.32,102.36,102.28,102.29,102.35,102.28,102.35,102.285,102.29,102.245,102.245,102.33,102.33,102.34,102.365,102.34,102.35,102.31
2019-04-17,103.015,103.375,103.52,103.71,103.62,103.59,-1.0,-1.0,103.48,103.46,-1.0,-1.0,103.66,103.69,103.87,-1.0,-1.0,-1.0,-1.0,-1.0,-1.0,103.84,-1.0,-1.0,-1.0,-1.0,103.89,-1.0,103.89,-1.0,104.09,-1.0,103.96,104.11,104.25,104.42,104.21,104.27,-1.0,103.93,103.87,-1.0,103.65,103.68,103.78,103.68,-1.0,103.65,103.555,103.44,103.5,103.57,103.635,103.65,103.73,-1.0,103.775,103.79,103.71,103.81,103.755,103.83,-1.0,103.83,103.87,103.955,103.975,103.795,103.81,103.89,103.86,103.79,103.67,103.66,103.59,103.555,103.565,-1.0,103.57,103.61,103.5,103.5,103.46,103.48,103.47,103.49,103.45,103.43,-1.0,103.22,103.14,-1.0,-1.0,103.18,103.2,103.255,103.39,103.49,103.5,103.545,103.47,103.49,103.505,103.345,103.305,103.42,103.44,103.415,103.3,103.3,103.375,103.355,103.35,103.43,103.43,103.39,103.42,103.43,103.365,-1.0,103.245,103.25,103.19,103.2,103.115,103.2,103.25,103.29,103.23,103.19,-1.0,-1.0,103.14,103.23,103.18,103.17,103.065,103.1,103.09,103.08,103.19,103.0,-1.0,102.99,103.03,103.06,102.96,102.915,102.835,102.9,102.83,102.82,102.73,102.7,102.63,102.615,102.57,102.765,102.81,102.76,102.715,-1.0,-1.0,102.62,102.6,-1.0,102.585,102.61,102.71,102.73,102.75,102.715,102.6,102.64,102.58,102.58,102.65,102.645,102.67,102.65,102.69,102.72,102.735,102.64,102.68,-1.0,102.64,-1.0,102.59,-1.0,102.37,102.265,102.25,102.35,102.37,-1.0,-1.0,-1.0,102.42,102.5,102.545,102.55,102.54,-1.0,-1.0,102.57,102.555,102.55,102.45,-1.0,-1.0,102.44,102.39,-1.0,102.44,-1.0,102.5,-1.0,102.41,-1.0,102.46,-1.0,102.42,102.375,102.385,-1.0,-1.0,102.515,-1.0,102.62,-1.0,102.595,102.61,102.7,102.67,102.635,-1.0,102.67,-1.0,102.84,-1.0,102.83,102.8,102.75,-1.0,102.78,102.79,102.81,-1.0,102.8,102.8,-1.0,102.84,102.8,102.77,102.74,102.685,102.63,-1.0,102.61,102.51,-1.0,102.445,-1.0,-1.0,102.54,102.56,102.59,102.56,102.57,-1.0,102.57,-1.0,102.47,-1.0,-1.0,102.51,-1.0,102.54,-1.0,102.44,102.385,-1.0,102.345,-1.0,102.29,102.32,-1.0,102.32,102.335,102.275,102.22,102.21,102.2,102.1,-1.0,101.99,102.11,102.11,-1.0,102.05,-1.0,102.06,102.08,102.0,101.98,-1.0,101.87,-1.0,101.78,101.78,101.71,101.82,101.765,101.765,-1.0,-1.0,101.8,101.77,101.75,101.78,101.8,-1.0,-1.0,-1.0,101.745,101.74,-1.0,101.69,101.645,101.66,101.7,-1.0,101.74,-1.0,101.76,101.72,-1.0,101.71,101.665,101.575,101.56,101.56,101.53,101.61,101.54,101.47,101.45,101.52,-1.0,101.58,101.575,101.61,-1.0,101.595,101.6,-1.0,101.51,-1.0,-1.0,101.73,101.67,101.66,101.625,101.65,101.64,101.67,101.73,-1.0,101.75,-1.0,101.91,101.85,101.84,101.855,101.87,101.835,101.84,101.89,101.98,102.01,102.0,-1.0,101.83,101.84,101.805,101.78,101.805,101.81,101.77
2019-04-18,-1.0,-1.0,-1.0,-1.0,-1.0,102.07,101.585,101.59,-1.0,101.69,101.73,101.89,101.89,102.12,102.15,102.065,102.02,102.05,102.06,102.075,102.285,102.17,102.185,102.22,-1.0,102.045,102.08,102.18,102.185,102.33,102.31,102.2,-1.0,102.125,-1.0,102.24,102.24,102.34,-1.0,102.35,102.41,102.41,-1.0,102.41,102.475,102.5,102.53,-1.0,-1.0,-1.0,-1.0,102.42,-1.0,102.495,-1.0,102.51,102.49,102.54,-1.0,102.62,102.625,-1.0,102.695,102.685,102.67,102.68,-1.0,102.69,-1.0,-1.0,102.74,-1.0,-1.0,102.68,102.745,-1.0,-1.0,-1.0,102.91,102.97,102.89,102.88,-1.0,-1.0,102.88,102.95,102.975,-1.0,103.055,103.06,-1.0,103.18,103.19,-1.0,103.08,-1.0,-1.0,-1.0,103.15,103.195,103.265,103.17,103.24,103.2,103.055,103.075,102.95,102.98,103.06,103.08,-1.0,-1.0,-1.0,-1.0,-1.0,-1.0,103.23,-1.0,103.18,-1.0,103.44,103.505,-1.0,103.645,103.6,-1.0,-1.0,-1.0,103.715,-1.0,-1.0,103.74,103.74,-1.0,103.7,-1.0,-1.0,103.66,103.62,103.57,103.57,103.585,-1.0,103.51,-1.0,-1.0,-1.0,-1.0,-1.0,-1.0,103.725,103.9,-1.0,-1.0,-1.0,104.005,-1.0,-1.0,-1.0,-1.0,-1.0,-1.0,-1.0,103.93,103.88,-1.0,103.77,-1.0,103.74,-1.0,-1.0,103.77,-1.0,-1.0,-1.0,103.79,-1.0,-1.0,103.845,103.83,-1.0,103.81,-1.0,103.79,103.84,-1.0,-1.0,103.74,103.655,103.685,-1.0,103.69,103.67,-1.0,-1.0,-1.0,103.83,103.91,103.9,-1.0,-1.0,-1.0,-1.0,104.07,-1.0,-1.0,-1.0,-1.0,-1.0,104.045,-1.0,104.08,-1.0,-1.0,-1.0,-1.0,104.24,104.17,-1.0,-1.0,-1.0,104.18,-1.0,-1.0,-1.0,104.2,-1.0,104.19,104.17,-1.0,104.2,-1.0,-1.0,-1.0,-1.0,-1.0,104.24,-1.0,-1.0,-1.0,104.15,-1.0,-1.0,104.22,-1.0,-1.0,-1.0,104.21,104.21,104.25,-1.0,-1.0,-1.0,-1.0,-1.0,104.1,-1.0,-1.0,104.035,-1.0,104.045,104.08,-1.0,104.035,104.015,-1.0,-1.0,-1.0,-1.0,104.045,-1.0,104.17,104.16,-1.0,-1.0,-1.0,103.915,-1.0,103.89,-1.0,-1.0,103.77,-1.0,-1.0,-1.0,-1.0,103.75,-1.0,-1.0,103.75,103.74,-1.0,-1.0,103.755,-1.0,103.76,103.725,-1.0,103.82,-1.0,-1.0,103.83,-1.0,103.85,-1.0,103.88,103.96,-1.0,103.91,-1.0,103.91,103.89,-1.0,-1.0,103.93,-1.0,104.01,-1.0,103.91,103.915,103.83,103.75,-1.0,103.63,103.65,-1.0,-1.0,-1.0,103.69,-1.0,-1.0,103.64,-1.0,-1.0,103.47,-1.0,-1.0,103.35,-1.0,103.6,103.65,103.695,-1.0,103.78,-1.0,103.86,103.83,103.85,103.855,103.84,-1.0,103.98,104.04,104.0,104.025,104.1,-1.0,-1.0,104.03,104.16,104.09,104.07,104.05,104.035,104.09,104.16,104.115,103.995,104.03,104.1,104.1,-1.0,104.085,104.12,104.16,104.14,104.19,104.19,104.26,-1.0,104.18,104.15,104.06,104.03,104.01,103.95,103.95,103.92,103.86,103.84
2019-04-22,105.27,105.57,105.42,105.42,-1.0,105.69,105.635,105.545,105.69,105.84,105.695,105.63,-1.0,105.49,105.17,-1.0,105.33,-1.0,105.22,105.11,104.92,-1.0,104.685,104.72,104.85,104.815,104.9,104.92,-1.0,104.83,104.83,104.93,-1.0,104.925,105.005,105.03,105.065,105.24,105.21,105.21,105.24,105.295,105.04,105.06,105.17,105.075,105.1,105.125,105.15,105.16,105.25,105.29,105.36,105.35,105.31,105.31,105.39,105.655,105.7,105.745,105.795,105.75,105.71,105.705,105.485,105.34,105.45,105.415,105.49,105.37,105.22,105.2,105.31,-1.0,-1.0,-1.0,-1.0,-1.0,105.5,-1.0,105.67,-1.0,105.74,105.83,-1.0,105.77,-1.0,105.85,105.715,105.765,-1.0,-1.0,105.52,105.485,-1.0,105.34,105.32,-1.0,-1.0,105.56,105.6,105.68,105.74,105.73,-1.0,105.7,-1.0,105.62,-1.0,105.605,105.705,-1.0,105.62,-1.0,105.72,105.73,-1.0,-1.0,105.68,105.735,105.81,105.86,105.79,105.75,105.78,105.875,105.875,105.9,105.9,105.85,106.075,106.07,106.025,106.07,106.1,106.06,106.04,106.075,-1.0,-1.0,106.06,106.05,106.04,106.01,106.07,105.98,106.06,106.105,106.075,106.24,106.355,106.4,106.38,106.39,106.42,106.46,106.425,106.47,106.59,106.63,106.69,106.66,106.64,106.69,106.71,106.77,-1.0,106.81,106.85,106.83,106.77,106.67,106.65,-1.0,106.73,-1.0,106.69,106.65,106.75,106.79,106.81,106.86,106.86,106.9,106.91,106.905,-1.0,-1.0,106.92,106.995,-1.0,-1.0,-1.0,-1.0,107.04,107.02,107.01,107.05,-1.0,107.06,-1.0,107.115,-1.0,107.04,-1.0,106.95,106.83,-1.0,-1.0,106.93,106.91,106.96,106.99,107.07,107.12,107.09,107.14,107.1,107.09,107.24,-1.0,107.07,-1.0,-1.0,106.97,107.01,107.11,107.13,107.145,107.04,-1.0,-1.0,-1.0,107.02,107.01,107.02,107.07,107.09,107.1,107.09,107.055,-1.0,-1.0,107.09,107.1,106.99,-1.0,-1.0,107.11,-1.0,107.145,-1.0,-1.0,107.18,107.255,107.24,-1.0,-1.0,-1.0,-1.0,107.27,107.205,-1.0,107.24,-1.0,107.21,107.15,107.11,107.06,107.04,-1.0,-1.0,106.96,-1.0,-1.0,-1.0,106.935,106.95,-1.0,-1.0,-1.0,106.9,106.805,-1.0,-1.0,-1.0,106.77,-1.0,-1.0,106.78,-1.0,-1.0,106.67,-1.0,-1.0,-1.0,106.6,-1.0,106.585,106.64,-1.0,106.63,-1.0,-1.0,106.6,-1.0,106.5,-1.0,106.4,106.29,-1.0,106.285,-1.0,-1.0,106.55,106.545,-1.0,106.545,106.58,106.555,106.55,106.605,-1.0,106.64,106.74,106.745,106.74,106.67,106.705,106.725,106.73,106.73,106.77,106.77,106.735,106.655,106.71,106.74,106.76,106.69,106.715,106.65,-1.0,-1.0,106.62,106.62,106.64,106.63,106.64,106.66,106.66,106.63,-1.0,106.71,-1.0,106.695,106.715,106.69,-1.0,106.715,-1.0,106.76,106.85,106.83,106.88,106.86,106.875,106.825,106.805,106.84,106.86,106.86,106.87,106.87,-1.0,106.83,106.88,106.875,106.89,106.91,106.95,106.965,106.95,106.96,107.01,106.94,106.86,106.77,106.73,106.86
2019-04-23,106.995,106.605,-1.0,107.0,-1.0,107.165,107.43,107.485,107.2,-1.0,106.83,-1.0,-1.0,106.775,-1.0,106.98,106.96,106.97,-1.0,106.895,106.755,106.45,106.43,106.24,106.13,106.21,105.84,105.82,105.89,106.14,106.11,106.07,-1.0,106.07,106.06,106.13,106.085,106.02,-1.0,106.06,-1.0,105.94,-1.0,105.89,105.85,105.7,105.705,105.655,105.615,-1.0,105.44,105.4,-1.0,-1.0,105.84,106.01,106.0,-1.0,-1.0,106.18,106.14,106.22,106.23,-1.0,106.37,106.31,106.4,-1.0,106.39,-1.0,106.44,106.59,106.575,106.615,-1.0,106.635,106.625,106.59,106.59,106.53,106.565,106.555,106.49,106.71,106.74,106.72,-1.0,-1.0,106.85,-1.0,106.89,-1.0,106.99,-1.0,107.17,-1.0,-1.0,107.03,-1.0,107.06,107.19,107.185,107.22,-1.0,107.25,107.38,-1.0,107.2,-1.0,-1.0,-1.0,107.19,-1.0,106.94,106.85,-1.0,-1.0,106.84,106.83,106.83,106.8,106.84,106.85,-1.0,-1.0,106.625,106.655,106.58,106.645,106.7,106.74,106.69,106.73,106.63,-1.0,106.69,106.665,106.705,106.63,106.56,106.67,106.735,106.83,106.95,106.965,107.085,107.05,106.98,107.01,107.055,107.1,107.05,107.04,-1.0,107.05,107.18,107.24,107.29,107.41,107.325,107.33,107.315,107.37,107.37,107.47,107.54,107.5,-1.0,107.36,107.355,107.365,107.28,107.325,-1.0,107.34,107.355,107.48,107.51,107.505,107.395,-1.0,107.4,107.375,107.38,107.265,-1.0,107.265,107.47,107.595,107.595,107.54,107.605,107.385,107.42,107.46,107.52,107.595,107.66,107.48,107.56,107.59,107.67,107.71,107.685,107.7,107.595,107.65,107.79,107.74,107.665,107.645,107.6,107.585,107.68,107.68,107.595,107.585,107.605,107.56,107.505,107.51,107.48,107.54,107.52,107.515,107.56,107.545,107.56,107.59,107.59,107.59,107.595,107.52,107.47,107.33,107.3,107.2,107.25,107.34,107.325,107.33,107.25,-1.0,-1.0,107.315,107.36,107.36,107.405,107.39,107.405,107.39,107.38,107.37,107.38,107.355,107.36,107.34,107.405,107.42,107.435,107.45,107.475,107.47,107.5,107.49,107.54,107.51,-1.0,107.545,107.52,107.53,107.535,107.55,107.565,107.58,107.67,107.685,107.695,107.7,107.685,107.78,107.795,107.75,107.815,107.79,107.745,107.695,107.78,107.815,107.81,107.785,107.745,107.72,107.58,107.405,107.475,107.42,107.375,107.48,-1.0,-1.0,107.33,107.31,107.28,107.29,107.28,107.23,107.26,107.25,107.24,107.22,107.23,107.19,-1.0,107.25,107.24,-1.0,107.22,107.205,107.19,-1.0,107.1,107.095,107.04,107.045,107.01,107.04,107.115,107.14,107.08,106.95,106.915,106.81,106.8,106.8,106.81,106.79,-1.0,106.84,106.74,106.76,106.89,106.85,106.825,106.855,106.965,106.92,106.94,106.92,106.84,106.91,106.89,106.87,106.915,106.95,106.91,106.925,106.92,106.905,106.865,106.89,106.89,106.91,106.91,106.925,106.93,106.93,106.99,106.97,106.96,106.945,106.92,106.94,106.91,106.94,106.83,106.795,106.72,106.725,106.84,106.87,106.885,106.845,106.88,106.84,106.835,106.84,106.835,106.75,106.65
2019-04-24,107.34,-1.0,107.005,-1.0,107.11,107.305,106.955,107.03,106.79,106.48,106.17,106.11,106.26,106.16,106.05,105.84,105.89,105.78,105.97,106.0,105.95,105.97,106.16,106.16,106.14,106.145,106.055,105.85,-1.0,-1.0,-1.0,-1.0,-1.0,105.325,105.19,105.1,105.09,104.93,104.98,105.04,104.965,104.985,104.84,104.9,-1.0,105.17,105.295,105.31,-1.0,105.39,105.58,105.63,105.755,105.67,105.76,-1.0,-1.0,105.92,-1.0,-1.0,-1.0,-1.0,105.815,-1.0,105.88,-1.0,-1.0,-1.0,-1.0,105.96,-1.0,105.65,105.48,105.4,105.51,105.58,105.68,105.75,105.83,-1.0,105.73,-1.0,105.52,105.5,105.5,-1.0,105.54,105.5,105.5,105.5,105.5,105.5,105.5,105.51,105.51,105.53,105.495,-1.0,105.5,105.5,105.52,105.525,-1.0,105.53,105.54,105.5,105.515,105.5,105.5,105.5,105.5,105.5,105.51,105.51,-1.0,105.5,105.53,105.52,105.555,105.68,-1.0,105.62,105.635,-1.0,-1.0,105.575,105.71,105.55,105.56,105.58,-1.0,105.535,-1.0,105.64,-1.0,-1.0,105.67,-1.0,-1.0,105.5,-1.0,-1.0,-1.0,-1.0,-1.0,-1.0,105.58,-1.0,-1.0,-1.0,-1.0,105.665,105.63,105.56,105.555,-1.0,105.59,-1.0,-1.0,-1.0,105.58,105.53,105.56,-1.0,-1.0,105.56,-1.0,-1.0,-1.0,-1.0,-1.0,-1.0,105.49,105.65,105.64,-1.0,-1.0,-1.0,-1.0,-1.0,105.5,-1.0,-1.0,-1.0,-1.0,105.505,105.4,-1.0,105.495,105.48,-1.0,-1.0,-1.0,-1.0,-1.0,-1.0,105.535,-1.0,-1.0,-1.0,-1.0,-1.0,-1.0,-1.0,105.58,-1.0,105.59,-1.0,105.56,105.645,105.785,105.72,105.67,-1.0,-1.0,-1.0,-1.0,105.515,-1.0,105.52,-1.0,-1.0,-1.0,105.45,105.435,105.44,-1.0,-1.0,-1.0,105.48,-1.0,105.49,-1.0,105.51,-1.0,-1.0,-1.0,105.48,105.43,105.38,105.37,105.18,-1.0,-1.0,105.2,105.2,105.1,105.09,105.055,-1.0,105.0,105.05,105.02,105.015,105.035,-1.0,105.02,-1.0,-1.0,-1.0,-1.0,-1.0,-1.0,104.995,105.01,104.99,104.995,104.98,105.04,105.0,104.995,-1.0,105.08,105.145,105.1,105.23,105.2,-1.0,-1.0,105.28,105.28,105.28,105.27,105.15,105.15,105.165,105.26,-1.0,105.255,105.32,105.23,105.18,-1.0,105.225,-1.0,-1.0,105.2,105.21,105.19,105.19,105.22,105.235,105.215,105.21,-1.0,105.085,105.05,105.0,105.07,-1.0,-1.0,104.97,104.96,104.955,-1.0,104.935,-1.0,105.08,105.035,-1.0,105.04,105.08,105.16,-1.0,-1.0,-1.0,-1.0,105.08,105.06,105.06,-1.0,105.045,105.03,-1.0,104.95,104.98,-1.0,104.97,104.95,104.83,-1.0,104.74,104.735,104.74,104.72,104.7,-1.0,-1.0,104.745,104.75,104.715,104.75,104.735,104.745,104.75,-1.0,104.72,104.74,104.745,104.73,104.77,104.77,104.69,104.65,104.62,104.63,-1.0,104.59,104.51,104.47,104.385,104.39,104.43,104.5,104.53,104.56,104.51,104.46,104.42,104.42,104.37,104.29,104.24,104.185,104.18,104.18,104.03,104.015,103.925,103.86
2019-04-25,103.92,-1.0,-1.0,103.765,103.5,-1.0,-1.0,-1.0,103.96,103.92,103.72,-1.0,103.79,103.73,103.835,-1.0,-1.0,-1.0,-1.0,103.75,-1.0,104.03,-1.0,103.89,103.73,103.78,103.92,103.92,103.81,103.825,103.79,103.66,-1.0,-1.0,103.58,103.59,-1.0,-1.0,103.44,103.39,103.375,103.37,103.36,103.35,103.3,-1.0,-1.0,103.17,103.11,103.11,103.17,103.27,103.33,103.51,103.47,103.61,103.61,103.59,103.57,103.55,103.54,-1.0,103.34,-1.0,-1.0,-1.0,-1.0,-1.0,-1.0,-1.0,103.535,103.47,-1.0,103.4,103.45,-1.0,-1.0,103.51,103.575,103.615,103.665,103.69,103.67,103.665,103.61,103.5,103.34,103.34,-1.0,-1.0,103.25,103.24,-1.0,103.49,103.675,103.675,103.7,103.695,103.7,103.84,103.71,103.81,103.865,103.885,103.82,103.715,103.55,103.615,103.625,103.795,103.755,104.0,104.0,103.98,103.98,103.98,103.91,103.85,-1.0,103.865,103.845,103.71,-1.0,103.63,103.63,103.795,103.82,103.905,-1.0,104.02,104.0,-1.0,-1.0,-1.0,-1.0,103.885,-1.0,103.975,103.89,103.88,103.89,103.95,103.92,-1.0,103.975,103.965,103.97,104.0,104.04,104.04,103.985,-1.0,104.04,103.95,103.955,103.98,-1.0,103.865,-1.0,-1.0,103.85,103.89,-1.0,103.85,103.83,103.83,-1.0,103.78,103.79,103.83,103.75,103.78,-1.0,103.785,103.795,103.79,-1.0,-1.0,-1.0,103.62,103.625,103.645,103.69,103.62,-1.0,103.66,103.71,103.69,-1.0,-1.0,-1.0,-1.0,103.72,-1.0,103.615,103.71,103.655,103.655,103.71,-1.0,103.64,103.57,103.59,103.555,103.57,-1.0,-1.0,-1.0,-1.0,103.62,-1.0,103.66,-1.0,103.64,-1.0,103.59,103.57,103.64,103.61,-1.0,103.6,103.62,103.66,103.665,103.62,103.58,103.5,-1.0,103.545,103.56,-1.0,103.58,103.54,103.57,103.58,103.585,103.555,-1.0,103.625,103.645,103.61,103.6,-1.0,-1.0,103.65,-1.0,-1.0,-1.0,103.65,-1.0,-1.0,103.6,-1.0,103.62,103.55,-1.0,103.59,103.57,103.51,-1.0,-1.0,-1.0,-1.0,-1.0,103.33,-1.0,103.33,-1.0,103.29,103.26,103.2,-1.0,103.155,103.17,-1.0,-1.0,-1.0,-1.0,103.07,103.065,-1.0,103.04,102.96,-1.0,103.025,-1.0,102.98,-1.0,102.95,-1.0,-1.0,102.81,102.85,102.84,102.88,102.845,102.8,102.78,102.8,102.85,102.925,102.895,-1.0,103.03,-1.0,102.99,-1.0,102.865,102.91,-1.0,102.65,102.69,102.72,-1.0,102.615,102.69,102.705,102.77,102.84,102.855,102.88,102.87,102.89,102.88,-1.0,102.88,102.845,102.855,102.88,102.85,102.83,102.83,102.805,-1.0,102.765,-1.0,102.7,102.73,102.72,102.7,102.64,102.625,102.615,102.62,102.58,102.45,102.445,102.375,-1.0,-1.0,102.44,102.53,102.52,102.6,102.55,102.57,102.695,102.845,102.86,103.01,103.0,102.89,102.9,102.91,102.8,102.76,102.75,102.8,102.83,102.785,102.82,102.79,102.74,-1.0,102.8,102.825,102.81,102.82,102.62,102.6,102.54,102.53,102.56,102.56,102.555,102.46,102.245,102.175,102.07,102.07
2019-04-26,101.375,-1.0,-1.0,-1.0,101.69,101.35,101.16,101.03,100.85,-1.0,100.36,100.23,100.13,100.15,99.77,99.82,-1.0,100.005,-1.0,100.38,100.33,100.52,100.62,100.68,-1.0,-1.0,100.355,100.44,-1.0,-1.0,-1.0,-1.0,-1.0,100.22,-1.0,-1.0,100.09,99.81,99.72,-1.0,-1.0,99.53,99.47,99.465,99.44,99.635,99.54,99.49,-1.0,99.24,-1.0,99.04,99.08,-1.0,99.09,99.12,99.15,-1.0,98.89,-1.0,98.92,98.895,98.865,-1.0,98.92,98.89,-1.0,98.77,98.7,-1.0,-1.0,-1.0,98.54,98.53,98.365,98.53,-1.0,98.65,98.69,-1.0,-1.0,-1.0,98.415,98.46,98.31,98.22,97.995,97.79,97.81,97.77,97.73,97.69,-1.0,-1.0,97.7,97.73,-1.0,-1.0,97.53,-1.0,-1.0,-1.0,-1.0,-1.0,97.62,-1.0,97.93,97.84,-1.0,97.88,-1.0,-1.0,98.05,98.12,-1.0,98.015,97.99,98.04,98.1,98.29,98.205,97.98,98.03,98.0,97.95,97.915,-1.0,98.08,-1.0,98.225,98.19,98.21,98.18,98.17,98.14,-1.0,98.07,98.17,98.16,98.205,98.25,98.01,-1.0,-1.0,-1.0,97.92,97.86,97.67,-1.0,-1.0,97.85,-1.0,97.93,97.89,-1.0,97.89,97.895,97.85,-1.0,97.86,97.85,97.86,97.85,97.75,97.83,-1.0,-1.0,97.74,97.79,97.805,97.83,97.82,-1.0,-1.0,-1.0,-1.0,-1.0,-1.0,97.43,97.41,97.44,97.45,-1.0,-1.0,97.41,97.43,97.41,97.42,97.49,97.53,97.55,97.54,97.59,-1.0,97.58,97.65,97.65,97.59,97.615,-1.0,97.65,97.64,-1.0,97.56,97.56,97.55,97.54,97.45,-1.0,97.55,97.55,97.68,-1.0,-1.0,97.7,97.7,97.635,-1.0,-1.0,97.63,97.72,97.71,97.7,97.65,97.6,-1.0,-1.0,97.445,97.43,97.37,97.345,97.42,97.44,97.44,-1.0,97.475,97.44,97.34,-1.0,97.45,97.4,-1.0,97.48,97.47,97.51,-1.0,97.45,-1.0,97.42,-1.0,-1.0,97.36,-1.0,97.5,-1.0,97.51,97.48,97.43,-1.0,-1.0,-1.0,-1.0,97.39,-1.0,-1.0,97.49,-1.0,97.54,97.58,97.62,-1.0,-1.0,97.52,-1.0,97.44,97.42,97.385,97.4,97.31,97.33,97.24,-1.0,97.285,97.14,97.08,97.32,-1.0,-1.0,97.31,-1.0,-1.0,97.46,97.59,97.705,97.61,97.54,97.62,97.69,97.71,97.54,97.54,97.59,97.57,97.61,97.54,97.555,97.47,97.4,97.4,-1.0,97.49,97.43,-1.0,97.5,-1.0,97.39,-1.0,-1.0,-1.0,97.44,97.46,97.5,-1.0,97.525,-1.0,-1.0,97.47,97.51,97.54,97.47,97.45,-1.0,97.61,97.55,97.59,97.635,97.7,-1.0,97.665,97.615,97.58,97.58,97.45,97.41,-1.0,97.37,97.43,97.46,97.42,97.5,97.49,97.44,97.5,97.46,97.47,97.46,97.52,97.455,97.4,-1.0,-1.0,97.46,97.55,97.475,-1.0,97.475,97.615,97.59,97.62,97.67,97.72,97.71,97.66,97.605,97.615,97.64,97.61,97.54,97.565,97.64,97.635,97.64,97.645,97.65,97.69,97.835,97.85,97.99,98.09,98.1
2019-04-29,-1.0,-1.0,98.075,-1.0,-1.0,98.06,98.08,97.925,97.64,97.635,97.755,97.75,-1.0,98.095,-1.0,-1.0,97.97,98.03,98.01,97.92,97.87,97.8,97.615,97.67,97.54,97.51,97.505,97.35,97.31,97.17,-1.0,97.495,97.73,-1.0,-1.0,-1.0,97.83,97.75,97.55,97.5,-1.0,97.39,97.4,97.35,-1.0,97.12,96.89,97.105,97.095,97.12,-1.0,-1.0,97.09,97.12,-1.0,-1.0,96.95,96.93,-1.0,-1.0,96.89,96.97,97.07,-1.0,-1.0,-1.0,97.11,97.105,97.03,96.99,97.0,-1.0,97.03,-1.0,-1.0,97.035,-1.0,96.96,96.91,97.03,97.08,-1.0,96.98,96.915,96.92,96.955,96.91,96.87,96.84,96.99,96.84,96.95,96.88,96.96,96.935,96.96,96.84,96.89,-1.0,-1.0,96.94,-1.0,96.935,96.925,96.755,96.79,96.84,-1.0,96.885,96.86,96.87,96.935,-1.0,97.0,96.98,97.025,97.165,97.2,-1.0,-1.0,97.43,97.46,97.43,97.59,-1.0,-1.0,97.63,-1.0,97.71,97.63,-1.0,97.395,-1.0,97.37,97.325,-1.0,-1.0,97.35,-1.0,97.35,97.29,97.38,97.405,-1.0,97.34,-1.0,97.34,-1.0,97.43,97.46,-1.0,-1.0,-1.0,-1.0,97.62,-1.0,-1.0,-1.0,-1.0,-1.0,-1.0,-1.0,97.68,97.6,-1.0,-1.0,-1.0,-1.0,-1.0,-1.0,97.515,97.59,97.595,-1.0,-1.0,-1.0,-1.0,-1.0,-1.0,-1.0,97.575,-1.0,-1.0,97.42,-1.0,97.5,97.53,97.53,-1.0,-1.0,97.575,97.58,97.69,97.75,97.645,97.61,97.59,97.71,-1.0,-1.0,97.77,-1.0,97.705,97.7,97.67,-1.0,-1.0,-1.0,97.62,-1.0,-1.0,97.63,-1.0,-1.0,-1.0,-1.0,-1.0,-1.0,97.59,97.62,-1.0,97.67,97.65,97.62,-1.0,-1.0,-1.0,-1.0,-1.0,-1.0,97.55,-1.0,97.625,-1.0,-1.0,97.61,97.58,-1.0,-1.0,97.58,97.57,-1.0,-1.0,-1.0,-1.0,-1.0,97.52,97.505,97.48,-1.0,-1.0,-1.0,-1.0,-1.0,97.565,97.58,-1.0,97.56,-1.0,-1.0,97.7,97.675,-1.0,-1.0,-1.0,97.68,97.64,97.62,-1.0,-1.0,-1.0,-1.0,-1.0,-1.0,-1.0,-1.0,-1.0,-1.0,-1.0,-1.0,-1.0,-1.0,-1.0,-1.0,-1.0,-1.0,-1.0,-1.0,97.4,97.41,-1.0,97.48,-1.0,97.53,97.5,-1.0,-1.0,97.465,-1.0,97.485,97.45,-1.0,-1.0,97.52,-1.0,97.47,97.45,-1.0,97.39,-1.0,-1.0,97.31,97.3,97.33,97.29,97.315,-1.0,-1.0,97.335,97.285,97.24,-1.0,97.15,-1.0,97.08,-1.0,-1.0,97.035,-1.0,96.88,96.89,96.94,-1.0,97.05,-1.0,97.07,-1.0,-1.0,97.03,-1.0,97.07,97.05,-1.0,97.055,-1.0,97.1,-1.0,97.01,-1.0,97.0,-1.0,97.02,-1.0,97.01,96.89,96.91,-1.0,-1.0,96.91,-1.0,97.02,97.04,97.035,97.06,96.99,97.06,97.095,97.16,97.14,97.16,97.165,97.165,-1.0,97.155,97.165,97.135,97.145,97.185,97.205,97.185,97.185,97.12,97.125,97.12,97.125,97.13,-1.0,97.1,97.095,96.99
2019-04-30,98.04,98.21,-1.0,-1.0,97.74,97.49,97.58,97.51,97.43,97.56,97.25,-1.0,97.03,-1.0,97.14,-1.0,-1.0,96.91,96.9,97.03,96.86,-1.0,-1.0,96.91,-1.0,96.63,96.615,96.67,96.64,-1.0,96.54,96.48,96.55,-1.0,-1.0,96.38,96.4,96.4,96.295,96.315,-1.0,96.39,-1.0,-1.0,96.12,96.015,95.85,95.685,95.43,95.385,95.27,95.24,95.22,95.53,95.66,95.75,-1.0,95.885,-1.0,95.855,95.94,-1.0,96.02,96.21,96.225,-1.0,96.19,96.165,96.17,96.17,-1.0,96.15,-1.0,96.02,-1.0,95.89,95.84,95.635,95.5,95.57,95.75,95.77,95.81,95.85,-1.0,-1.0,96.045,96.03,96.09,96.175,96.13,96.065,96.08,95.845,95.75,95.715,95.655,95.51,95.4,95.34,95.425,95.46,95.365,95.31,95.32,95.62,95.56,95.41,95.405,95.465,95.625,95.61,95.63,95.74,95.8,95.9,95.91,95.81,95.815,95.89,95.86,96.03,95.88,95.88,95.94,-1.0,-1.0,95.935,96.045,96.14,96.115,95.97,95.86,95.82,95.79,95.59,95.44,95.495,95.565,95.785,95.83,95.89,95.92,95.78,95.74,95.77,-1.0,95.84,95.83,95.8,95.64,95.72,-1.0,95.7,-1.0,95.69,95.68,95.61,-1.0,-1.0,95.655,95.68,95.64,95.615,-1.0,95.58,95.55,95.53,95.46,95.475,95.5,95.54,-1.0,-1.0,95.445,-1.0,95.535,-1.0,-1.0,95.53,95.645,95.65,-1.0,95.61,95.56,95.54,-1.0,-1.0,95.525,95.52,95.46,95.485,95.45,-1.0,-1.0,95.475,95.49,95.43,-1.0,-1.0,-1.0,95.41,95.4,95.34,-1.0,-1.0,95.46,95.475,95.49,-1.0,95.59,95.56,-1.0,-1.0,-1.0,95.65,-1.0,-1.0,95.71,-1.0,95.66,-1.0,-1.0,95.65,95.59,95.55,95.55,95.55,95.54,95.47,95.46,95.45,95.44,95.43,95.41,95.33,-1.0,-1.0,95.28,95.28,95.335,95.33,95.35,95.4,95.38,95.4,95.34,95.305,-1.0,95.29,95.21,95.16,95.145,-1.0,-1.0,-1.0,-1.0,95.19,95.17,95.17,95.195,95.15,-1.0,95.19,95.16,95.15,-1.0,95.05,95.09,-1.0,-1.0,-1.0,94.99,-1.0,95.03,95.03,95.04,95.01,95.025,95.04,95.06,95.05,95.1,95.09,95.1,95.1,95.05,95.0,95.03,95.03,-1.0,95.03,95.1,95.11,95.025,95.125,95.13,-1.0,95.21,-1.0,95.23,-1.0,95.125,-1.0,95.18,95.235,95.165,95.18,95.24,95.19,95.18,95.15,95.01,95.0,-1.0,95.21,95.21,95.275,95.3,95.36,95.44,95.56,95.54,-1.0,-1.0,95.57,-1.0,-1.0,-1.0,95.61,95.535,95.58,95.59,95.62,95.67,95.64,95.625,95.63,-1.0,95.645,95.65,95.67,95.73,95.73,95.735,95.72,95.735,95.74,95.7,95.72,95.77,95.91,95.85,95.87,95.83,95.81,95.75,95.8,95.84,95.92,95.855,95.81,95.85,95.89,95.91,95.9,95.92,95.905,95.93,95.915,95.88,95.88,95.915,95.91,95.91,95.98,95.88,95.84,95.85,95.86,95.84,95.81,95.89,95.9,95.91,95.92,95.9,95.89,95.92,95.93
2019-05-01,95.905,-1.0,-1.0,95.75,95.82,95.815,95.77,-1.0,95.73,95.715,95.39,-1.0,95.185,95.33,95.54,95.585,95.73,95.73,95.72,95.59,95.59,95.65,-1.0,95.45,95.32,95.34,95.2,95.25,95.17,95.08,95.02,95.03,94.87,94.83,94.74,94.87,-1.0,95.065,95.215,95.11,-1.0,95.265,95.15,95.045,95.115,95.06,95.02,95.14,95.16,95.18,-1.0,95.31,95.26,95.32,95.28,95.25,95.27,95.08,95.0,95.0,94.63,94.6,94.645,94.65,94.68,94.81,94.77,94.89,-1.0,94.97,94.71,94.66,94.705,94.705,94.765,94.855,94.75,94.75,94.695,-1.0,-1.0,94.54,-1.0,94.48,94.465,94.32,-1.0,94.3,94.345,94.18,94.17,94.09,94.05,94.04,94.07,94.13,94.05,94.115,93.98,94.01,94.14,94.08,94.14,94.07,94.03,-1.0,93.9,93.94,93.99,-1.0,94.0,93.92,-1.0,-1.0,93.92,94.03,93.985,93.95,93.97,93.96,93.94,93.95,93.93,93.97,-1.0,93.98,93.925,93.94,93.94,93.96,93.98,94.24,94.23,94.22,94.17,94.16,94.155,94.13,93.97,94.025,94.065,94.03,94.065,94.01,94.06,94.04,94.05,94.005,93.96,94.06,94.01,93.965,93.94,93.96,93.99,94.01,93.93,93.88,93.91,93.78,93.77,93.66,93.745,93.59,93.58,93.57,93.6,-1.0,93.52,93.47,93.44,93.45,93.56,93.55,93.6,93.61,-1.0,93.67,93.645,93.61,-1.0,-1.0,93.47,93.44,93.41,93.485,93.44,-1.0,93.39,93.36,93.395,93.33,93.345,93.37,93.35,93.32,93.31,93.25,93.195,93.18,93.18,93.16,93.12,93.08,93.14,93.275,93.27,93.33,93.38,-1.0,93.51,93.435,93.36,93.35,93.47,-1.0,93.37,93.34,93.385,93.34,-1.0,93.44,93.4,93.34,-1.0,-1.0,-1.0,-1.0,93.41,93.465,93.41,93.345,93.21,-1.0,-1.0,-1.0,93.34,93.25,-1.0,93.33,93.27,93.21,93.255,93.28,93.31,-1.0,93.38,93.34,93.49,93.49,93.53,-1.0,93.57,93.6,93.51,93.4,93.475,93.46,93.445,-1.0,-1.0,93.45,93.55,93.55,-1.0,-1.0,93.52,93.5,-1.0,93.45,93.47,93.44,93.365,93.4,93.42,93.64,-1.0,93.7,93.71,93.66,93.6,93.54,93.56,-1.0,93.61,93.59,93.64,93.74,93.805,93.75,93.71,93.71,93.76,93.83,93.85,93.83,93.775,93.7,93.72,93.6,93.51,93.49,93.51,93.39,93.405,93.4,93.41,93.4,93.33,-1.0,93.14,93.2,-1.0,93.14,93.14,93.07,93.09,-1.0,-1.0,93.1,93.12,93.22,93.18,93.33,93.44,93.48,93.48,93.55,93.45,93.45,93.43,93.46,-1.0,93.21,-1.0,-1.0,93.3,-1.0,93.29,-1.0,93.31,93.28,93.28,93.22,93.24,93.3,93.26,93.3,93.31,93.27,-1.0,93.18,93.18,93.08,92.98,-1.0,92.96,92.96,92.97,92.96,92.92,92.875,92.83,92.79,92.765,92.73,92.77,92.675,92.7,92.655,92.6,92.63,92.73,92.75,92.71,92.57,92.59,92.52,92.53,92.53,92.51,92.57,92.55,92.58,92.48,92.35,92.36,92.24,92.21,91.88
2019-05-02,91.12,-1.0,91.06,91.02,91.52,91.7,91.73,91.68,91.65,91.92,91.82,-1.0,91.645,91.61,91.9,91.87,91.76,-1.0,91.88,91.9,91.91,91.91,91.705,-1.0,91.56,91.64,91.685,91.34,91.58,91.59,91.63,91.79,91.62,91.61,91.64,91.66,91.64,91.53,91.5,91.395,91.3,91.3,91.25,-1.0,91.48,91.435,-1.0,-1.0,91.36,91.31,91.27,91.58,91.58,91.64,91.645,91.57,91.64,91.49,91.48,91.4,91.34,91.38,91.41,91.45,-1.0,-1.0,91.25,91.09,-1.0,-1.0,-1.0,90.91,-1.0,-1.0,90.83,90.82,90.805,90.735,90.61,90.69,-1.0,-1.0,90.68,90.735,90.635,90.8,90.71,90.66,90.57,-1.0,90.485,90.47,90.47,90.475,90.515,90.46,90.51,90.49,90.41,90.37,90.455,90.45,90.445,90.39,90.35,90.39,90.335,90.23,90.16,90.04,89.88,89.86,89.96,89.89,-1.0,-1.0,89.92,89.925,89.82,89.76,89.81,89.94,89.99,89.93,-1.0,89.87,90.0,-1.0,-1.0,89.88,89.82,-1.0,89.77,-1.0,89.65,-1.0,-1.0,-1.0,-1.0,89.8,89.85,-1.0,89.57,89.63,89.49,89.44,89.465,-1.0,89.34,89.31,-1.0,-1.0,-1.0,89.64,89.61,89.82,89.875,89.79,-1.0,89.675,-1.0,89.79,89.79,89.83,89.7,89.61,-1.0,89.64,89.6,89.57,89.5,-1.0,89.52,89.6,89.59,89.52,89.77,89.755,89.66,89.73,89.83,89.85,89.96,89.86,89.865,89.825,89.76,89.82,89.82,89.79,89.8,89.775,-1.0,-1.0,89.765,89.75,89.8,-1.0,89.77,89.78,89.76,89.665,89.57,89.54,89.6,89.66,89.655,89.6,-1.0,89.655,89.72,-1.0,-1.0,-1.0,89.43,89.44,-1.0,89.41,89.475,89.46,89.56,89.52,89.57,-1.0,89.57,-1.0,89.76,89.76,89.75,89.81,89.875,-1.0,89.95,89.98,89.97,89.985,-1.0,89.92,-1.0,-1.0,89.92,89.93,89.86,89.87,89.85,-1.0,89.83,89.83,89.83,89.84,89.8,89.76,89.72,89.72,89.825,-1.0,89.845,89.8,89.75,-1.0,89.75,89.73,-1.0,89.73,89.67,-1.0,89.74,-1.0,89.63,-1.0,-1.0,89.61,89.58,89.56,89.55,89.61,89.61,89.55,89.59,89.63,89.63,89.56,-1.0,-1.0,89.75,89.61,-1.0,89.75,89.75,-1.0,89.67,89.65,89.75,89.81,-1.0,89.9,89.935,89.725,89.55,89.5,89.66,-1.0,89.66,89.6,89.7,89.63,89.59,-1.0,89.77,89.695,89.75,89.675,89.69,89.775,89.81,89.77,-1.0,89.665,89.63,-1.0,89.575,89.76,89.8,89.795,89.68,89.725,-1.0,89.76,89.695,89.71,89.73,-1.0,89.76,-1.0,89.74,89.775,89.715,-1.0,89.675,89.61,89.615,89.67,89.61,89.62,89.57,89.55,-1.0,89.71,-1.0,89.785,89.74,89.68,-1.0,-1.0,89.78,-1.0,89.8,-1.0,89.71,89.77,89.79,-1.0,-1.0,89.62,89.605,89.54,89.56,89.66,89.7,89.72,89.615,89.56,89.66,89.73,89.75,89.7,89.645,89.675,89.77,89.745,89.68,89.625,89.62,89.55,89.54,89.45,89.48,89.52,89.4,89.07
2019-05-03,-1.0,92.0,92.12,91.85,91.85,91.75,91.18,91.335,91.175,90.93,-1.0,91.14,91.18,91.195,90.99,90.92,90.26,89.96,90.0,90.47,90.605,90.82,90.91,90.81,-1.0,90.92,91.045,-1.0,90.915,90.945,91.035,90.92,90.855,91.275,91.53,91.71,91.87,91.83,-1.0,91.61,91.755,91.79,91.83,91.77,91.81,91.84,92.08,92.025,92.1,92.3,92.15,92.255,92.32,92.37,92.32,92.525,92.58,92.71,92.95,92.98,92.83,92.815,92.82,92.81,92.875,92.88,92.895,92.92,92.97,93.0,93.015,93.01,92.99,92.96,93.04,93.0,93.01,92.98,93.05,93.01,92.97,92.97,92.96,93.01,92.945,92.94,92.975,92.94,92.96,93.0,92.96,92.97,93.09,93.34,93.22,-1.0,93.35,93.31,93.21,93.45,93.45,93.4,93.15,93.12,93.13,92.93,92.97,92.78,92.665,92.665,-1.0,-1.0,92.595,92.615,92.72,92.88,-1.0,-1.0,-1.0,92.76,92.75,-1.0,92.775,-1.0,92.73,92.72,-1.0,-1.0,-1.0,92.73,92.75,92.74,92.83,92.83,92.81,92.72,92.68,92.61,-1.0,92.65,92.65,92.73,92.78,92.77,92.63,92.72,92.68,92.625,92.65,92.6,-1.0,92.7,92.71,92.715,-1.0,92.81,92.885,92.93,92.91,-1.0,92.9,92.9,92.76,-1.0,92.73,92.74,-1.0,92.8,92.76,92.74,-1.0,-1.0,92.78,-1.0,92.74,92.78,-1.0,92.78,92.75,92.76,92.78,-1.0,92.86,92.77,92.75,92.73,92.75,92.77,-1.0,92.825,92.92,92.94,92.99,93.015,93.03,92.85,92.84,-1.0,-1.0,93.02,93.0,93.01,92.905,-1.0,92.85,-1.0,92.625,92.74,-1.0,92.74,-1.0,92.75,-1.0,92.81,92.73,-1.0,-1.0,-1.0,92.68,92.715,92.68,92.69,92.7,92.68,92.66,92.655,92.65,92.55,92.66,92.65,-1.0,92.76,92.7,-1.0,92.66,92.735,92.64,92.575,92.62,92.62,92.68,92.61,92.53,92.42,92.3,92.28,92.15,-1.0,92.09,-1.0,92.12,-1.0,-1.0,92.14,92.02,-1.0,-1.0,92.12,92.12,92.1,92.13,92.16,92.12,92.115,92.0,91.84,91.83,91.78,91.86,91.81,-1.0,91.74,-1.0,91.68,91.7,-1.0,91.82,91.83,91.84,91.94,-1.0,-1.0,-1.0,-1.0,92.03,92.06,-1.0,92.15,92.135,-1.0,92.16,92.22,92.22,-1.0,-1.0,91.945,91.96,91.93,-1.0,-1.0,91.89,-1.0,-1.0,91.78,-1.0,-1.0,91.77,91.71,91.665,91.64,91.64,91.68,-1.0,91.73,91.71,91.77,91.78,91.77,91.71,91.72,91.735,-1.0,-1.0,92.03,92.125,92.1,92.09,-1.0,91.92,-1.0,91.82,91.82,-1.0,-1.0,91.77,-1.0,91.78,91.84,-1.0,-1.0,-1.0,-1.0,-1.0,91.76,91.75,-1.0,-1.0,91.72,91.72,91.69,91.7,91.69,91.68,91.73,91.69,91.69,91.76,-1.0,91.82,91.62,-1.0,91.65,91.64,91.55,91.65,91.6,91.58,91.51,91.52,91.56,91.67,91.61,91.47,91.38,91.48,91.4,91.37,91.32,91.19,91.2,91.28,91.35,91.36,91.255,91.32,91.44,91.51,91.5,91.46,90.84
2019-05-06,89.65,90.19,-1.0,90.53,-1.0,90.48,90.165,90.1,89.945,-1.0,90.0,-1.0,-1.0,-1.0,90.0,89.97,90.01,90.05,90.085,90.06,89.915,89.86,89.965,90.025,90.34,90.54,90.58,90.52,90.855,90.685,90.76,90.63,-1.0,90.55,90.57,90.655,90.8,-1.0,91.09,91.22,-1.0,91.27,91.385,91.38,91.595,91.51,91.495,91.38,91.415,91.455,91.36,91.41,91.32,91.0,91.135,91.215,91.14,91.265,-1.0,91.115,90.875,90.86,-1.0,-1.0,90.71,-1.0,90.725,-1.0,90.92,90.9,90.895,91.03,91.015,90.795,90.78,-1.0,90.78,90.68,90.575,90.445,90.41,-1.0,90.55,90.53,90.625,90.61,90.77,90.785,-1.0,-1.0,-1.0,90.85,-1.0,90.82,90.72,90.635,90.57,90.5,90.5,90.48,90.475,90.52,90.49,-1.0,90.72,-1.0,90.87,91.07,91.01,90.99,-1.0,91.015,90.99,90.92,-1.0,-1.0,-1.0,90.94,-1.0,91.0,90.9,-1.0,90.91,90.72,90.63,90.78,90.845,90.975,-1.0,-1.0,91.11,91.12,91.11,91.01,90.945,-1.0,91.19,91.11,-1.0,-1.0,90.96,90.85,90.805,90.94,90.79,90.78,90.68,90.55,90.54,90.525,-1.0,90.53,-1.0,-1.0,90.56,-1.0,90.55,90.58,90.63,90.68,-1.0,90.63,-1.0,90.69,90.69,-1.0,-1.0,90.805,90.78,-1.0,-1.0,90.99,90.89,-1.0,90.96,90.985,-1.0,90.93,90.87,90.87,90.755,90.675,90.62,90.575,90.57,90.54,90.625,-1.0,90.55,90.6,-1.0,-1.0,-1.0,90.71,90.71,90.695,-1.0,90.695,-1.0,-1.0,90.62,90.615,90.615,90.67,90.675,90.73,90.705,90.75,90.805,90.71,90.67,90.675,90.66,90.69,90.695,90.75,90.78,90.8,90.775,90.57,90.6,-1.0,-1.0,90.685,90.64,-1.0,90.815,-1.0,90.85,90.805,90.84,-1.0,90.845,90.86,-1.0,-1.0,90.89,90.915,90.905,90.88,90.895,-1.0,90.88,-1.0,-1.0,90.91,-1.0,90.9,90.88,90.895,-1.0,90.91,-1.0,-1.0,-1.0,-1.0,91.24,91.235,91.24,-1.0,91.29,-1.0,-1.0,91.36,-1.0,91.395,91.33,-1.0,91.24,91.24,91.21,91.15,91.17,91.21,-1.0,91.18,91.23,91.225,91.25,91.29,91.255,91.175,91.26,91.21,91.19,91.2,91.21,91.14,-1.0,-1.0,-1.0,91.14,91.11,-1.0,91.125,91.125,91.2,91.23,-1.0,91.205,91.22,91.29,91.28,91.16,91.165,91.19,91.155,91.205,-1.0,-1.0,91.34,-1.0,91.325,91.41,91.395,91.41,91.43,91.425,91.45,91.55,-1.0,91.605,91.605,91.605,91.6,-1.0,91.62,91.65,91.63,91.59,-1.0,91.67,-1.0,91.75,91.73,91.73,91.79,91.725,91.73,91.65,91.62,91.605,91.61,91.585,91.52,91.48,91.52,91.56,91.55,91.6,91.62,91.67,91.655,91.66,-1.0,91.775,91.795,91.785,91.805,91.755,91.63,91.63,91.52,91.49,91.475,91.56,91.455,91.45,91.48,91.38,91.41,91.265,91.24,91.24,91.24,91.225,91.12,91.13,91.17,91.19,91.365,91.38,91.49,91.47,91.33,91.29,91.3,91.295,91.34,91.25
2019-05-07,89.865,89.945,89.85,89.895,89.86,89.87,89.865,89.99,90.615,90.705,90.29,90.27,90.45,90.55,90.32,-1.0,90.43,90.29,-1.0,-1.0,89.83,89.83,89.905,-1.0,90.39,90.51,90.54,-1.0,-1.0,90.61,90.73,90.48,90.49,90.66,90.715,90.73,90.61,90.75,90.77,90.72,90.74,90.79,-1.0,90.99,91.065,91.09,90.98,90.94,-1.0,91.06,91.08,91.2,91.24,91.18,-1.0,91.2,91.23,91.26,91.25,91.34,91.28,91.12,91.1,-1.0,90.75,90.57,-1.0,90.575,90.605,90.64,90.665,90.915,90.945,90.88,90.91,90.89,90.91,90.78,90.75,90.77,90.625,90.555,90.59,90.67,90.585,90.595,90.585,90.6,90.625,90.56,90.665,90.56,90.55,90.435,90.46,90.49,90.495,90.49,90.465,90.55,-1.0,90.655,90.65,90.55,90.71,-1.0,90.72,90.75,-1.0,90.71,90.63,-1.0,-1.0,90.65,90.665,90.65,90.665,-1.0,90.82,90.94,-1.0,91.04,91.14,91.04,-1.0,-1.0,90.79,90.59,90.62,90.68,90.955,90.8,-1.0,-1.0,90.81,-1.0,90.86,-1.0,-1.0,90.855,-1.0,-1.0,90.7,90.715,90.74,90.72,-1.0,90.59,90.51,90.52,90.505,-1.0,90.47,90.495,90.625,90.63,90.69,-1.0,-1.0,-1.0,90.8,-1.0,-1.0,-1.0,90.76,90.71,90.79,-1.0,-1.0,-1.0,-1.0,-1.0,90.75,-1.0,-1.0,-1.0,90.7,-1.0,-1.0,-1.0,-1.0,-1.0,90.95,90.89,-1.0,90.88,90.895,90.92,-1.0,90.925,90.885,-1.0,90.89,90.92,90.88,90.91,-1.0,-1.0,-1.0,90.92,90.88,90.96,-1.0,90.93,-1.0,90.71,-1.0,90.61,90.6,90.725,90.715,90.705,90.69,90.67,90.63,90.545,90.51,90.52,90.465,90.45,-1.0,90.39,90.425,90.48,-1.0,-1.0,-1.0,90.45,-1.0,-1.0,90.365,-1.0,90.395,-1.0,90.34,90.4,-1.0,90.39,90.44,-1.0,90.28,90.32,90.24,90.38,90.425,90.45,90.46,90.27,90.35,-1.0,90.3,90.205,90.245,90.27,-1.0,-1.0,90.27,-1.0,90.375,90.49,90.52,-1.0,90.58,90.71,90.59,90.495,-1.0,-1.0,90.55,-1.0,90.53,-1.0,-1.0,-1.0,90.6,-1.0,90.75,90.76,-1.0,90.785,90.765,-1.0,-1.0,-1.0,90.765,-1.0,90.73,90.67,90.665,-1.0,-1.0,90.76,-1.0,90.71,90.57,90.675,-1.0,90.6,90.52,90.57,90.62,90.47,90.43,90.46,90.425,90.515,90.58,90.655,90.685,-1.0,-1.0,90.77,90.69,90.65,90.6,-1.0,90.61,90.63,-1.0,-1.0,90.63,90.66,90.685,90.72,90.805,91.0,90.98,91.02,91.04,91.02,91.03,-1.0,91.0,90.885,90.915,90.93,90.915,90.955,90.97,-1.0,-1.0,91.21,91.28,91.29,91.26,91.32,91.2,91.26,91.245,91.15,91.19,91.16,91.135,91.15,91.03,91.085,91.04,91.035,91.035,91.045,91.05,91.06,91.08,91.06,91.01,91.01,91.04,91.055,-1.0,91.07,91.065,-1.0,91.22,91.32,91.39,91.47,91.44,91.44,91.5,91.45,91.42,-1.0,91.57,91.57,91.71,91.79,91.69,91.69,91.68,91.71
2019-05-08,91.615,-1.0,92.235,92.03,-1.0,92.445,92.61,92.875,92.745,92.68,-1.0,92.79,92.835,92.66,-1.0,92.99,93.18,93.3,93.38,93.41,93.14,93.195,93.38,93.62,-1.0,93.29,93.15,93.11,93.08,93.24,93.31,93.44,93.34,93.2,-1.0,-1.0,93.56,-1.0,93.57,93.615,93.42,93.43,-1.0,93.42,-1.0,-1.0,93.42,-1.0,-1.0,93.33,93.45,93.425,93.58,93.62,93.63,93.655,93.66,93.565,-1.0,93.35,93.755,93.69,93.39,93.405,-1.0,93.4,93.42,93.435,-1.0,93.43,93.57,-1.0,93.62,93.58,93.63,-1.0,93.66,-1.0,93.83,93.805,-1.0,-1.0,93.77,-1.0,93.585,93.6,-1.0,93.54,93.64,93.69,93.91,94.08,94.09,94.17,94.3,94.33,94.505,94.65,94.6,94.395,94.385,94.185,94.18,94.27,94.49,94.49,94.46,94.285,94.34,-1.0,-1.0,94.295,94.195,94.18,94.08,-1.0,-1.0,-1.0,93.92,-1.0,94.01,94.01,94.01,93.81,93.885,93.97,93.99,93.85,93.83,-1.0,-1.0,93.78,-1.0,93.78,93.76,93.83,-1.0,93.92,-1.0,-1.0,93.92,-1.0,93.915,-1.0,93.94,-1.0,94.05,-1.0,-1.0,94.02,93.99,-1.0,93.87,-1.0,-1.0,-1.0,-1.0,93.9,-1.0,-1.0,93.69,93.7,93.7,93.75,93.715,93.74,-1.0,93.82,93.825,93.72,93.64,93.735,-1.0,-1.0,-1.0,93.81,93.8,93.85,93.85,93.88,-1.0,-1.0,-1.0,93.685,-1.0,-1.0,93.71,-1.0,93.57,93.58,93.57,93.56,-1.0,-1.0,-1.0,93.57,93.62,93.67,93.64,93.77,-1.0,93.81,93.75,93.71,-1.0,93.665,93.67,93.75,93.76,93.785,93.74,-1.0,-1.0,-1.0,93.79,93.76,93.72,93.78,93.78,93.77,93.79,93.795,-1.0,93.765,93.755,93.735,93.67,93.685,93.64,93.645,-1.0,93.72,-1.0,-1.0,93.815,93.72,93.79,-1.0,-1.0,93.71,-1.0,93.655,93.725,93.79,93.805,93.805,93.71,93.8,-1.0,-1.0,-1.0,-1.0,93.78,93.82,-1.0,93.805,93.81,93.71,93.73,93.79,-1.0,-1.0,93.81,93.75,93.72,93.725,93.72,-1.0,-1.0,-1.0,93.81,-1.0,93.705,93.72,93.725,-1.0,93.69,93.71,93.74,93.82,93.76,93.76,-1.0,93.655,-1.0,93.65,93.7,93.74,93.69,93.65,93.67,93.695,93.75,93.77,93.84,93.92,93.97,94.03,94.01,94.04,94.175,94.14,94.15,-1.0,94.235,94.24,94.21,94.15,-1.0,-1.0,94.29,94.24,94.19,94.19,94.215,94.29,94.15,94.17,-1.0,94.12,-1.0,-1.0,94.16,94.195,94.25,94.26,-1.0,94.14,94.25,94.175,94.26,94.2,94.255,94.22,94.15,94.1,94.12,94.21,94.13,-1.0,-1.0,94.21,94.21,94.32,94.24,94.15,94.125,-1.0,94.26,-1.0,-1.0,-1.0,-1.0,94.31,94.275,94.33,94.38,94.4,94.455,94.355,94.375,94.39,94.365,94.42,94.41,-1.0,94.45,94.46,94.325,94.34,94.37,94.35,94.24,94.305,94.28,94.29,94.22,94.21,94.305,94.27,94.15,94.11,94.22,94.22,94.16,94.06,94.085,94.105,94.11,94.01
2019-05-09,92.18,92.615,92.635,-1.0,-1.0,92.81,-1.0,92.735,-1.0,93.23,93.23,-1.0,93.21,-1.0,-1.0,92.66,92.56,-1.0,-1.0,92.47,92.32,92.17,-1.0,92.35,-1.0,92.335,92.44,92.48,-1.0,92.65,92.67,92.62,92.67,92.59,92.79,-1.0,92.805,92.96,92.92,92.955,92.88,-1.0,-1.0,92.85,92.88,92.835,-1.0,92.67,-1.0,92.55,92.47,92.66,92.58,92.76,92.735,92.76,92.75,-1.0,92.84,92.94,93.01,93.04,93.08,93.035,-1.0,92.955,92.98,92.82,92.75,-1.0,92.78,92.81,93.04,93.17,93.18,93.3,93.295,93.42,-1.0,93.42,93.375,93.425,-1.0,93.425,93.44,93.365,93.4,93.37,93.41,93.365,93.43,93.49,93.49,93.49,93.595,93.54,93.56,93.44,93.6,-1.0,93.755,93.82,93.67,-1.0,93.86,93.79,-1.0,-1.0,-1.0,-1.0,-1.0,93.455,-1.0,-1.0,93.255,93.37,93.235,93.13,93.155,93.155,93.3,93.25,93.37,-1.0,-1.0,-1.0,93.515,93.5,-1.0,93.65,93.77,93.655,93.53,93.635,93.71,93.74,-1.0,93.72,-1.0,-1.0,-1.0,-1.0,93.71,93.695,93.75,-1.0,-1.0,-1.0,93.725,-1.0,93.88,-1.0,-1.0,93.815,93.82,93.83,93.81,93.87,93.965,94.02,93.925,93.95,-1.0,-1.0,-1.0,93.91,-1.0,-1.0,94.14,-1.0,94.03,94.025,94.01,94.04,94.04,93.99,-1.0,94.145,94.32,94.29,94.35,-1.0,94.52,94.53,94.53,-1.0,-1.0,-1.0,94.72,94.78,-1.0,-1.0,94.67,94.57,94.63,94.67,94.685,94.635,94.55,94.61,94.59,94.53,94.53,94.78,94.76,-1.0,94.8,-1.0,94.73,94.85,94.98,-1.0,95.04,95.06,95.005,-1.0,-1.0,94.8,-1.0,-1.0,94.78,94.62,-1.0,94.78,94.76,94.71,-1.0,94.56,-1.0,94.49,94.48,-1.0,94.555,94.59,94.55,-1.0,-1.0,94.56,94.655,94.625,94.66,-1.0,-1.0,-1.0,-1.0,-1.0,94.71,94.59,94.595,-1.0,94.665,94.625,-1.0,-1.0,-1.0,-1.0,94.6,94.565,94.545,94.71,94.73,94.68,-1.0,94.655,94.62,94.665,94.655,94.7,94.715,94.675,94.81,-1.0,94.675,94.525,94.58,-1.0,94.75,94.73,94.645,-1.0,94.735,94.79,94.74,94.78,94.81,94.79,94.77,94.77,-1.0,94.715,94.7,94.78,-1.0,-1.0,94.715,94.675,94.64,94.465,94.43,-1.0,94.45,94.47,94.52,94.53,94.38,94.395,-1.0,94.335,-1.0,94.42,94.44,94.46,94.425,94.425,94.39,94.36,94.32,94.34,94.275,94.27,94.27,94.33,94.35,94.37,94.36,94.35,94.3,94.23,-1.0,94.145,94.09,94.09,-1.0,94.12,94.16,94.14,94.14,94.075,-1.0,93.905,93.865,93.94,93.94,94.03,93.975,-1.0,94.015,94.02,93.99,94.01,94.065,94.105,94.095,94.13,94.165,94.145,94.15,94.13,94.16,94.18,-1.0,94.31,-1.0,94.335,94.39,94.295,94.31,94.25,-1.0,94.34,94.35,94.265,94.245,-1.0,94.34,94.3,94.32,94.31,94.32,94.23,94.26,94.33,94.31,94.3,94.32,94.335,94.35,94.305,94.3,94.24
2019-05-10,94.205,-1.0,93.84,93.95,94.065,94.015,93.93,94.115,94.105,94.2,94.185,94.12,94.15,93.92,93.93,93.835,93.91,-1.0,94.08,93.84,93.72,93.6,93.545,93.715,93.64,93.64,-1.0,93.63,93.705,93.64,93.62,93.53,93.565,-1.0,93.555,93.44,93.35,93.37,-1.0,93.44,-1.0,93.45,93.48,93.39,93.35,93.06,92.905,92.905,92.99,-1.0,92.94,92.9,92.905,92.83,92.825,93.035,-1.0,-1.0,93.08,93.065,93.135,93.045,93.065,93.02,-1.0,92.995,-1.0,92.885,92.785,92.72,92.8,92.65,92.73,92.74,92.8,92.81,93.01,93.01,93.05,92.92,93.015,93.03,93.16,-1.0,93.14,93.15,93.125,93.145,93.28,93.195,93.215,-1.0,93.13,-1.0,93.095,-1.0,93.23,93.29,-1.0,93.05,93.05,93.07,93.07,93.09,93.15,93.17,-1.0,93.27,93.29,93.335,93.475,-1.0,93.615,93.585,93.575,93.565,93.525,93.61,-1.0,93.58,93.56,93.43,-1.0,93.475,-1.0,93.45,93.42,-1.0,93.66,-1.0,93.57,93.62,93.4,93.245,93.4,93.48,93.36,-1.0,93.34,93.34,93.27,-1.0,-1.0,-1.0,93.45,93.635,93.54,93.575,93.59,-1.0,93.725,93.74,93.695,93.725,93.62,93.62,93.585,93.53,-1.0,-1.0,93.54,93.54,93.68,-1.0,93.785,93.765,-1.0,93.78,93.86,93.86,93.8,-1.0,93.86,-1.0,93.84,-1.0,93.955,93.98,-1.0,-1.0,-1.0,94.115,94.13,94.28,-1.0,-1.0,-1.0,-1.0,-1.0,-1.0,-1.0,94.165,94.055,-1.0,-1.0,94.18,-1.0,94.17,-1.0,94.065,-1.0,-1.0,-1.0,-1.0,-1.0,94.34,94.2,94.265,-1.0,-1.0,94.28,94.39,-1.0,-1.0,-1.0,94.405,94.35,-1.0,-1.0,-1.0,-1.0,94.38,-1.0,-1.0,-1.0,-1.0,94.16,94.215,94.32,-1.0,-1.0,-1.0,94.52,94.39,-1.0,94.47,-1.0,-1.0,94.51,94.48,-1.0,94.52,94.53,94.575,-1.0,-1.0,94.545,-1.0,94.475,-1.0,94.56,-1.0,94.525,94.47,-1.0,-1.0,94.58,-1.0,94.545,-1.0,94.59,94.605,94.58,-1.0,94.62,-1.0,94.5,-1.0,-1.0,94.575,94.535,94.52,94.625,94.625,-1.0,-1.0,94.62,94.7,94.7,94.675,-1.0,94.705,94.665,94.67,94.535,94.455,94.42,94.415,94.35,94.325,94.28,94.22,94.1,94.06,94.07,94.0,-1.0,94.18,94.19,-1.0,94.17,94.155,94.215,-1.0,-1.0,94.24,94.24,94.295,94.33,-1.0,94.425,94.425,94.38,-1.0,94.375,94.365,94.37,94.375,-1.0,94.4,94.425,94.42,94.465,-1.0,94.5,94.55,-1.0,94.56,94.575,94.59,94.59,94.65,94.77,94.675,94.78,94.795,94.8,94.72,94.695,94.73,94.765,-1.0,-1.0,-1.0,94.735,-1.0,94.885,-1.0,95.01,-1.0,95.11,95.01,95.11,-1.0,95.085,95.07,95.17,-1.0,-1.0,95.15,95.09,95.0,94.995,94.91,-1.0,94.77,-1.0,-1.0,94.69,94.71,94.68,94.66,94.65,94.615,94.63,94.65,94.76,94.72,94.645,94.625,94.69,94.71,94.71,94.79,94.79,94.8,94.765,94.86,94.86,94.95
2019-05-13,-1.0,-1.0,-1.0,-1.0,94.35,94.43,94.41,94.52,94.53,-1.0,94.54,-1.0,94.66,-1.0,-1.0,-1.0,-1.0,-1.0,94.88,94.7,-1.0,94.44,94.445,94.42,-1.0,-1.0,-1.0,94.295,94.28,94.34,-1.0,-1.0,94.14,94.02,94.085,-1.0,93.94,93.985,93.97,-1.0,93.62,93.645,93.64,93.705,93.72,93.79,93.91,93.91,94.195,94.135,93.995,93.895,93.875,-1.0,94.09,94.17,-1.0,94.09,94.23,94.24,94.22,94.25,-1.0,94.305,94.335,94.42,94.55,94.455,94.485,94.61,94.885,94.905,95.135,95.25,95.21,95.145,95.2,95.06,94.995,94.77,-1.0,-1.0,-1.0,94.8,-1.0,94.75,-1.0,-1.0,-1.0,94.81,94.96,94.94,94.69,94.61,-1.0,94.49,-1.0,94.61,94.58,94.575,94.48,-1.0,94.515,-1.0,94.31,-1.0,94.235,93.97,-1.0,94.06,94.18,94.14,94.07,-1.0,94.18,94.09,94.01,93.895,93.885,93.96,-1.0,93.99,93.99,-1.0,94.015,-1.0,-1.0,93.9,-1.0,-1.0,-1.0,93.68,93.8,93.89,93.9,93.875,-1.0,93.85,93.785,93.83,93.82,93.67,-1.0,-1.0,-1.0,93.59,93.59,93.665,-1.0,-1.0,-1.0,-1.0,-1.0,93.785,93.77,93.78,93.815,93.77,93.66,93.65,93.7,93.775,93.65,93.755,-1.0,-1.0,93.63,-1.0,-1.0,93.815,93.805,-1.0,93.83,-1.0,93.77,93.85,-1.0,-1.0,93.82,93.81,93.71,93.595,93.69,93.715,93.695,93.785,93.765,93.85,94.0,94.015,93.98,93.98,93.84,93.8,93.86,93.9,93.9,-1.0,-1.0,93.97,93.975,-1.0,94.085,-1.0,94.035,-1.0,93.775,93.865,-1.0,93.9,93.835,93.75,93.705,93.78,93.805,93.785,93.73,93.755,93.625,93.56,93.57,-1.0,93.685,93.76,-1.0,93.75,93.68,93.7,-1.0,-1.0,93.72,-1.0,-1.0,-1.0,93.76,93.86,93.79,-1.0,93.715,-1.0,93.66,93.91,-1.0,93.725,-1.0,-1.0,-1.0,-1.0,93.79,93.94,93.85,93.79,93.78,93.72,93.695,93.62,93.62,93.565,93.55,93.645,-1.0,-1.0,-1.0,-1.0,93.61,-1.0,93.645,93.585,93.61,93.63,-1.0,93.7,93.7,93.765,93.755,93.825,93.825,-1.0,-1.0,93.85,93.86,-1.0,93.66,93.685,93.605,93.64,93.5,93.595,93.62,93.57,93.75,-1.0,93.635,-1.0,93.56,93.69,93.87,-1.0,93.87,93.955,-1.0,-1.0,-1.0,-1.0,93.73,93.68,93.63,-1.0,-1.0,93.76,93.625,-1.0,-1.0,-1.0,-1.0,-1.0,93.68,-1.0,-1.0,-1.0,-1.0,-1.0,-1.0,-1.0,-1.0,-1.0,-1.0,93.9,-1.0,-1.0,93.85,93.87,-1.0,93.68,-1.0,93.62,93.68,-1.0,93.77,-1.0,93.64,93.65,93.62,93.5,93.495,93.47,-1.0,-1.0,93.41,93.39,93.345,-1.0,-1.0,-1.0,93.37,93.32,-1.0,93.23,-1.0,93.28,93.285,93.34,93.33,-1.0,-1.0,93.41,93.325,93.34,93.33,93.33,93.42,93.39,-1.0,-1.0,93.325,93.41,93.36,93.43,93.44,-1.0,-1.0,93.435,93.42,93.39,93.33,93.41,93.44,93.52,93.55,93.465
2019-05-14,94.1,94.1,-1.0,-1.0,94.54,94.36,94.55,-1.0,-1.0,-1.0,94.375,94.405,-1.0,94.495,94.44,-1.0,94.465,94.485,94.57,94.28,-1.0,94.17,94.09,-1.0,94.13,94.11,-1.0,94.31,-1.0,94.35,94.415,94.535,94.61,-1.0,-1.0,94.56,-1.0,94.71,94.66,94.7,-1.0,94.615,94.67,94.54,94.43,94.6,94.59,94.65,94.63,94.8,94.86,94.86,94.88,94.885,94.85,94.835,94.835,94.92,94.91,95.06,-1.0,94.95,94.975,95.11,-1.0,95.09,95.05,95.05,-1.0,-1.0,-1.0,95.085,95.105,95.035,-1.0,-1.0,95.07,95.03,-1.0,94.97,94.97,-1.0,94.885,-1.0,-1.0,94.71,-1.0,-1.0,94.57,94.6,94.64,94.655,-1.0,-1.0,94.435,94.63,94.74,-1.0,-1.0,94.65,94.72,94.63,94.74,-1.0,94.735,-1.0,94.78,94.775,94.87,-1.0,95.01,94.97,94.79,94.77,94.9,94.92,94.87,-1.0,94.81,-1.0,94.795,94.86,-1.0,-1.0,94.86,94.99,94.98,94.95,94.96,94.85,94.91,94.905,94.97,94.95,-1.0,94.76,94.905,94.91,94.98,-1.0,94.92,95.01,95.05,95.065,-1.0,95.18,95.245,-1.0,95.125,-1.0,95.1,-1.0,-1.0,-1.0,95.245,95.23,-1.0,95.2,95.15,-1.0,95.11,-1.0,-1.0,-1.0,95.11,-1.0,95.05,-1.0,-1.0,-1.0,94.91,94.86,94.9,94.885,94.82,-1.0,94.82,94.81,-1.0,94.785,94.84,-1.0,94.865,-1.0,94.95,-1.0,94.94,-1.0,-1.0,95.03,95.03,-1.0,-1.0,95.075,-1.0,-1.0,-1.0,95.01,-1.0,-1.0,-1.0,95.07,-1.0,-1.0,95.17,95.13,95.075,95.13,95.06,95.05,95.09,-1.0,-1.0,-1.0,-1.0,95.01,-1.0,-1.0,-1.0,-1.0,95.065,95.15,95.18,95.21,95.215,95.27,95.22,-1.0,-1.0,95.17,95.155,-1.0,95.12,-1.0,95.18,-1.0,-1.0,-1.0,95.17,-1.0,-1.0,95.165,95.17,95.13,-1.0,95.12,95.16,95.14,95.08,95.04,-1.0,-1.0,94.905,-1.0,-1.0,-1.0,-1.0,-1.0,94.87,-1.0,94.945,94.93,94.89,-1.0,-1.0,-1.0,94.99,94.97,94.98,-1.0,94.91,-1.0,94.93,-1.0,-1.0,-1.0,-1.0,94.74,94.72,94.76,94.77,94.785,94.82,-1.0,-1.0,94.815,-1.0,94.84,94.795,94.77,94.77,94.75,94.73,94.76,94.77,94.8,94.77,94.69,-1.0,-1.0,94.66,94.62,94.61,94.63,94.63,-1.0,-1.0,94.58,94.59,94.61,-1.0,94.595,-1.0,-1.0,94.6,-1.0,94.48,-1.0,94.42,94.36,94.31,94.26,94.28,94.31,94.265,94.235,94.315,94.365,94.335,94.35,94.335,94.38,94.35,94.45,94.475,94.43,94.42,-1.0,94.43,94.46,94.54,94.44,-1.0,-1.0,94.35,94.38,-1.0,94.29,94.34,94.37,94.365,94.34,-1.0,-1.0,-1.0,-1.0,94.31,94.41,94.425,-1.0,-1.0,94.335,-1.0,94.23,94.2,94.245,-1.0,94.135,94.15,-1.0,94.165,94.145,94.15,94.255,94.23,94.1,94.13,94.2,-1.0,94.28,94.265,94.24,94.22,94.2,94.23,94.35,94.23,94.22,94.26,94.23
2019-05-15,-1.0,-1.0,-1.0,93.185,93.63,-1.0,-1.0,93.845,93.7,-1.0,93.705,93.7,-1.0,-1.0,93.685,-1.0,-1.0,-1.0,-1.0,-1.0,93.82,93.71,-1.0,93.7,93.84,-1.0,-1.0,93.77,93.495,93.575,93.625,-1.0,93.455,93.41,93.41,93.28,93.275,93.315,93.435,93.3,93.37,93.435,93.39,93.265,93.49,93.75,93.63,93.6,93.625,-1.0,-1.0,93.59,93.61,93.505,-1.0,93.6,93.715,-1.0,-1.0,93.645,93.46,93.665,93.75,-1.0,-1.0,93.69,-1.0,93.63,93.7,93.75,93.8,93.76,93.735,93.83,93.89,93.94,-1.0,94.03,93.92,-1.0,-1.0,94.085,-1.0,94.105,94.045,-1.0,93.975,-1.0,-1.0,93.87,93.835,93.805,-1.0,93.69,-1.0,93.61,-1.0,93.725,93.75,93.78,93.8,-1.0,94.0,93.995,-1.0,-1.0,94.115,94.04,-1.0,94.015,94.095,94.04,94.01,94.14,-1.0,94.185,94.315,-1.0,-1.0,-1.0,-1.0,-1.0,94.17,-1.0,94.285,94.23,-1.0,94.125,94.19,-1.0,94.24,-1.0,94.395,-1.0,-1.0,94.27,-1.0,-1.0,94.245,-1.0,94.31,94.31,94.2,-1.0,-1.0,-1.0,94.295,-1.0,94.405,94.4,94.45,-1.0,94.51,-1.0,94.535,94.505,94.51,-1.0,-1.0,94.54,94.46,94.535,-1.0,94.445,94.52,-1.0,-1.0,-1.0,-1.0,94.37,-1.0,-1.0,-1.0,-1.0,94.31,-1.0,94.29,94.32,-1.0,-1.0,-1.0,-1.0,-1.0,-1.0,-1.0,94.455,94.33,-1.0,94.31,94.31,-1.0,-1.0,94.24,-1.0,94.225,-1.0,-1.0,94.13,-1.0,94.245,-1.0,-1.0,-1.0,-1.0,-1.0,94.42,94.395,94.35,-1.0,94.22,94.25,94.275,-1.0,94.33,-1.0,94.355,-1.0,-1.0,94.31,94.32,94.305,-1.0,94.25,94.26,94.235,94.195,94.23,-1.0,94.185,-1.0,94.15,-1.0,-1.0,-1.0,94.09,-1.0,94.13,94.15,-1.0,94.16,-1.0,94.2,94.26,94.25,94.34,-1.0,-1.0,94.38,94.39,-1.0,-1.0,-1.0,94.35,-1.0,-1.0,-1.0,94.21,-1.0,94.2,-1.0,-1.0,-1.0,-1.0,-1.0,-1.0,94.23,-1.0,94.19,94.19,-1.0,94.175,94.175,94.155,-1.0,-1.0,94.215,-1.0,-1.0,-1.0,-1.0,94.275,-1.0,-1.0,-1.0,-1.0,94.13,-1.0,-1.0,94.22,-1.0,-1.0,94.28,-1.0,-1.0,94.395,-1.0,-1.0,-1.0,-1.0,-1.0,-1.0,94.225,94.26,-1.0,-1.0,-1.0,-1.0,-1.0,94.135,94.16,-1.0,-1.0,-1.0,94.27,-1.0,-1.0,-1.0,94.35,-1.0,-1.0,94.39,-1.0,-1.0,-1.0,-1.0,-1.0,94.275,94.28,-1.0,-1.0,94.24,94.275,-1.0,94.13,94.15,-1.0,-1.0,-1.0,-1.0,-1.0,94.12,94.03,-1.0,94.115,-1.0,-1.0,-1.0,94.195,94.19,94.3,-1.0,94.39,-1.0,-1.0,-1.0,-1.0,94.38,-1.0,-1.0,-1.0,94.44,94.455,-1.0,-1.0,94.38,-1.0,-1.0,94.51,-1.0,-1.0,-1.0,-1.0,-1.0,-1.0,-1.0,94.605,94.565,94.52,94.56,-1.0,-1.0,94.585,94.595,94.6,94.56,94.48,94.42,94.44,94.445,94.35
2019-05-16,-1.0,-1.0,-1.0,-1.0,-1.0,95.17,95.395,-1.0,-1.0,-1.0,95.405,-1.0,-1.0,95.55,95.12,94.9,94.82,94.95,94.9,95.125,-1.0,95.09,95.25,-1.0,-1.0,95.7,-1.0,-1.0,-1.0,-1.0,95.6,95.55,95.49,95.47,-1.0,-1.0,95.41,95.55,95.585,95.57,-1.0,95.425,95.31,-1.0,-1.0,-1.0,95.405,95.32,-1.0,95.36,95.4,-1.0,-1.0,95.475,95.515,-1.0,-1.0,95.4,95.44,-1.0,95.655,95.63,-1.0,95.53,95.575,95.53,95.57,95.59,-1.0,-1.0,-1.0,-1.0,-1.0,-1.0,95.8,-1.0,-1.0,-1.0,-1.0,95.66,95.66,95.48,95.515,-1.0,95.61,95.65,-1.0,-1.0,-1.0,-1.0,95.735,95.89,95.95,96.045,-1.0,-1.0,-1.0,-1.0,-1.0,-1.0,95.815,95.88,-1.0,-1.0,-1.0,95.93,95.98,95.99,96.045,-1.0,-1.0,-1.0,-1.0,-1.0,-1.0,95.955,95.95,-1.0,96.0,-1.0,95.98,-1.0,-1.0,-1.0,-1.0,-1.0,95.87,95.75,-1.0,-1.0,-1.0,-1.0,-1.0,-1.0,95.93,95.94,95.92,95.94,95.95,95.95,-1.0,96.01,95.99,-1.0,-1.0,96.01,96.05,96.03,-1.0,96.21,-1.0,96.13,-1.0,96.12,96.11,-1.0,-1.0,96.15,-1.0,-1.0,-1.0,96.025,-1.0,96.04,-1.0,95.99,95.975,96.02,96.07,96.0,95.96,-1.0,95.92,95.915,95.9,95.92,95.895,95.935,95.89,95.88,95.89,-1.0,95.93,-1.0,95.95,-1.0,-1.0,95.98,95.955,96.0,95.96,-1.0,95.97,-1.0,-1.0,-1.0,-1.0,-1.0,-1.0,-1.0,-1.0,-1.0,-1.0,95.885,-1.0,-1.0,-1.0,-1.0,-1.0,95.92,-1.0,95.83,-1.0,95.7,95.73,95.68,95.7,-1.0,95.82,-1.0,-1.0,95.79,95.83,95.82,-1.0,95.785,95.78,-1.0,-1.0,95.805,95.76,95.735,95.79,-1.0,-1.0,95.74,-1.0,-1.0,-1.0,-1.0,95.755,95.79,-1.0,-1.0,-1.0,95.74,-1.0,-1.0,-1.0,95.71,-1.0,95.62,95.62,95.6,95.62,-1.0,95.675,95.56,-1.0,95.49,95.5,95.49,-1.0,95.455,95.46,95.44,-1.0,-1.0,95.55,95.65,95.63,-1.0,95.66,-1.0,-1.0,-1.0,-1.0,-1.0,-1.0,95.585,-1.0,95.58,95.58,95.595,95.63,95.61,-1.0,-1.0,-1.0,95.72,-1.0,95.67,-1.0,-1.0,95.76,95.78,95.785,-1.0,95.7,-1.0,-1.0,95.7,95.66,-1.0,-1.0,95.64,-1.0,95.73,-1.0,95.825,95.83,95.845,95.81,95.85,95.87,95.92,95.915,95.88,95.825,-1.0,95.8,95.81,95.77,-1.0,95.64,95.62,95.66,95.64,95.59,95.62,95.62,-1.0,-1.0,-1.0,-1.0,95.675,95.725,95.55,95.58,95.61,95.53,95.53,95.5,95.47,95.45,95.455,-1.0,95.45,-1.0,95.395,95.37,-1.0,-1.0,95.52,-1.0,95.515,95.545,95.595,-1.0,95.565,95.55,95.515,95.495,95.445,95.445,95.49,95.47,-1.0,95.31,95.29,95.23,95.21,95.07,-1.0,95.045,95.055,95.095,95.04,95.05,95.05,95.12,95.18,95.265,95.28,95.33,95.265,95.23,95.2,95.22,95.15
2019-05-17,94.305,-1.0,94.4,94.45,-1.0,94.415,94.45,94.36,94.375,94.265,94.06,94.2,94.225,94.24,94.325,94.33,-1.0,-1.0,94.275,-1.0,-1.0,93.9,-1.0,93.95,-1.0,-1.0,94.185,-1.0,94.16,94.21,94.3,94.25,94.135,-1.0,-1.0,94.04,94.05,94.04,94.0,94.09,94.03,94.06,93.93,93.91,93.755,-1.0,-1.0,93.8,93.86,93.82,-1.0,94.07,-1.0,-1.0,94.15,-1.0,94.055,94.04,94.015,93.95,93.94,93.9,93.885,93.855,93.89,-1.0,-1.0,93.53,93.53,-1.0,-1.0,93.385,-1.0,93.41,93.44,93.45,93.275,93.305,93.37,93.42,93.51,93.64,93.71,93.695,-1.0,93.93,93.99,94.05,-1.0,93.9,93.9,-1.0,93.93,93.92,93.96,94.02,94.075,94.135,94.145,-1.0,-1.0,93.91,93.95,93.99,-1.0,93.98,94.01,-1.0,94.17,94.16,94.25,94.12,-1.0,94.1,-1.0,94.005,-1.0,93.865,93.795,-1.0,93.78,93.7,93.69,93.75,93.8,-1.0,93.83,93.76,93.775,93.73,93.65,93.675,93.59,93.48,-1.0,93.57,93.58,93.575,93.57,93.53,93.51,93.585,-1.0,93.55,93.695,-1.0,-1.0,93.62,93.725,93.74,93.67,93.755,93.75,93.805,93.795,93.7,-1.0,-1.0,93.69,-1.0,93.48,93.39,93.395,93.44,-1.0,-1.0,93.295,-1.0,-1.0,93.395,93.395,93.35,-1.0,93.43,93.38,-1.0,93.32,93.31,93.305,93.185,93.15,93.095,93.055,93.055,93.015,93.09,93.065,93.07,93.115,93.06,93.015,93.1,93.12,93.17,93.09,93.115,93.1,93.06,92.99,93.03,92.985,93.0,93.005,93.01,-1.0,-1.0,92.95,92.98,-1.0,92.865,92.855,92.86,92.9,92.92,-1.0,-1.0,92.9,-1.0,92.915,93.015,-1.0,92.955,-1.0,-1.0,92.89,92.92,92.96,93.045,93.04,93.02,93.005,-1.0,93.05,-1.0,-1.0,93.01,93.045,-1.0,93.085,93.13,-1.0,-1.0,-1.0,93.16,-1.0,93.245,93.32,93.3,93.32,93.33,-1.0,93.275,93.215,93.24,-1.0,93.31,-1.0,93.345,-1.0,-1.0,93.44,-1.0,-1.0,-1.0,-1.0,93.36,93.34,-1.0,-1.0,93.48,-1.0,-1.0,-1.0,-1.0,93.27,93.3,-1.0,93.31,93.29,93.27,-1.0,93.12,-1.0,93.105,93.06,92.995,93.015,93.015,93.01,93.02,93.05,-1.0,-1.0,93.02,-1.0,92.97,92.92,92.9,-1.0,92.905,92.86,-1.0,92.93,92.99,93.01,93.03,93.03,93.05,-1.0,93.13,-1.0,93.045,-1.0,93.04,93.085,93.09,-1.0,93.115,93.09,93.13,93.09,93.115,93.12,-1.0,-1.0,93.28,93.31,-1.0,-1.0,-1.0,93.36,93.15,93.075,-1.0,93.1,-1.0,92.965,92.945,92.88,92.905,92.85,-1.0,-1.0,92.78,-1.0,92.78,92.73,92.775,92.78,-1.0,92.82,92.755,92.78,92.83,92.82,-1.0,92.775,92.775,92.77,92.84,92.86,92.79,92.685,92.67,92.74,92.78,92.86,92.88,92.925,92.91,92.86,92.81,92.83,92.965,92.965,92.945,92.945,92.93,92.95,92.915,92.91,92.96,93.07,93.055,93.065,93.06,93.195,93.14,93.02,93.0
2019-05-20,-1.0,-1.0,93.14,-1.0,93.29,93.07,-1.0,93.14,-1.0,93.0,93.17,93.23,93.29,-1.0,-1.0,-1.0,-1.0,-1.0,93.51,93.45,93.29,93.39,-1.0,93.27,93.235,-1.0,93.445,-1.0,-1.0,-1.0,93.665,93.74,93.85,93.77,-1.0,-1.0,93.7,93.735,93.76,93.905,93.87,93.98,94.05,94.11,93.97,-1.0,94.17,94.23,-1.0,94.09,94.03,94.02,94.13,94.14,94.29,94.26,94.28,-1.0,94.3,94.32,94.25,94.2,94.17,94.17,94.175,-1.0,-1.0,-1.0,94.27,-1.0,-1.0,-1.0,-1.0,94.385,94.39,94.34,94.24,94.21,94.29,-1.0,-1.0,94.235,94.35,-1.0,94.5,-1.0,-1.0,94.465,-1.0,-1.0,94.44,94.435,94.24,94.16,-1.0,-1.0,-1.0,-1.0,94.04,-1.0,93.92,-1.0,-1.0,-1.0,-1.0,94.04,-1.0,93.985,93.86,93.805,-1.0,93.675,-1.0,93.65,-1.0,93.63,93.62,93.73,-1.0,-1.0,93.9,-1.0,-1.0,93.945,93.87,-1.0,93.77,-1.0,-1.0,93.84,93.915,93.985,-1.0,-1.0,-1.0,93.87,93.83,-1.0,-1.0,-1.0,-1.0,93.97,-1.0,93.975,93.96,-1.0,-1.0,-1.0,-1.0,94.03,94.07,94.07,94.14,-1.0,-1.0,-1.0,-1.0,94.04,-1.0,-1.0,-1.0,-1.0,94.07,94.065,94.11,-1.0,94.08,94.04,94.03,-1.0,-1.0,94.015,-1.0,-1.0,-1.0,94.07,-1.0,-1.0,-1.0,-1.0,-1.0,-1.0,-1.0,93.87,93.97,93.96,94.07,-1.0,-1.0,94.025,93.935,93.94,-1.0,94.03,-1.0,-1.0,94.07,-1.0,-1.0,-1.0,-1.0,93.98,93.97,-1.0,93.93,-1.0,93.875,-1.0,-1.0,-1.0,93.81,-1.0,-1.0,93.75,-1.0,-1.0,-1.0,93.74,-1.0,-1.0,-1.0,93.76,-1.0,93.68,93.66,-1.0,93.75,-1.0,-1.0,93.74,93.69,93.725,-1.0,-1.0,-1.0,93.675,93.63,-1.0,-1.0,-1.0,-1.0,93.565,93.535,-1.0,93.57,-1.0,93.57,-1.0,-1.0,93.5,-1.0,-1.0,-1.0,93.57,93.52,93.52,-1.0,93.525,93.54,93.54,-1.0,-1.0,-1.0,-1.0,-1.0,-1.0,-1.0,-1.0,93.435,-1.0,-1.0,-1.0,-1.0,-1.0,-1.0,-1.0,-1.0,93.4,-1.0,-1.0,93.43,-1.0,93.51,93.5,-1.0,-1.0,-1.0,93.51,-1.0,-1.0,93.45,-1.0,-1.0,-1.0,-1.0,93.52,93.6,-1.0,-1.0,-1.0,-1.0,93.54,93.59,-1.0,93.56,-1.0,-1.0,-1.0,-1.0,-1.0,-1.0,-1.0,-1.0,-1.0,-1.0,-1.0,-1.0,93.61,93.58,-1.0,-1.0,-1.0,-1.0,93.55,-1.0,-1.0,93.55,93.56,93.56,93.5,93.495,-1.0,93.45,-1.0,-1.0,-1.0,93.35,93.365,-1.0,93.365,-1.0,93.36,93.355,-1.0,-1.0,93.39,93.425,93.5,-1.0,-1.0,-1.0,-1.0,-1.0,93.49,-1.0,93.425,-1.0,93.425,-1.0,-1.0,-1.0,93.48,93.535,93.58,93.635,93.635,93.69,93.69,93.71,93.73,93.655,93.66,-1.0,93.63,93.605,93.58,93.61,93.565,93.565,93.535,93.55,93.51,93.53,93.625,-1.0,93.65,93.76,93.62,93.56,93.55
2019-05-21,94.2,94.31,94.41,-1.0,94.185,94.25,94.13,94.345,-1.0,-1.0,-1.0,94.63,94.77,94.81,94.805,94.65,94.68,-1.0,-1.0,-1.0,95.01,95.03,95.05,95.0,95.01,95.02,95.03,95.08,95.05,95.045,94.95,-1.0,95.145,95.205,95.2,95.105,-1.0,95.21,-1.0,95.005,94.97,95.06,95.085,95.09,-1.0,95.11,-1.0,95.185,95.05,95.01,-1.0,-1.0,94.99,94.85,94.84,-1.0,95.035,94.975,94.96,94.82,-1.0,-1.0,-1.0,94.925,94.93,-1.0,94.92,94.81,94.775,94.72,94.805,94.73,94.72,94.79,94.88,-1.0,94.895,95.0,94.965,94.94,-1.0,-1.0,94.985,94.945,94.94,-1.0,94.96,95.09,95.005,-1.0,95.145,95.165,-1.0,95.015,94.99,-1.0,95.135,-1.0,94.945,94.97,94.94,-1.0,-1.0,-1.0,94.985,95.11,95.01,95.0,94.965,-1.0,95.085,95.01,-1.0,-1.0,-1.0,95.18,95.19,-1.0,-1.0,95.03,-1.0,-1.0,-1.0,-1.0,-1.0,-1.0,-1.0,-1.0,-1.0,94.77,94.81,-1.0,94.89,94.91,-1.0,-1.0,94.84,94.9,-1.0,-1.0,94.8,-1.0,94.655,-1.0,94.62,-1.0,94.6,94.67,94.645,94.72,-1.0,-1.0,94.78,94.74,94.77,94.85,94.8,-1.0,-1.0,-1.0,-1.0,94.905,-1.0,94.855,94.95,-1.0,-1.0,94.87,94.89,94.915,-1.0,-1.0,-1.0,95.015,94.97,-1.0,-1.0,-1.0,94.98,94.99,94.965,-1.0,-1.0,-1.0,-1.0,-1.0,-1.0,95.04,-1.0,-1.0,-1.0,-1.0,-1.0,-1.0,95.0,-1.0,95.03,95.0,-1.0,-1.0,95.07,-1.0,95.05,-1.0,95.06,-1.0,-1.0,-1.0,-1.0,95.04,-1.0,-1.0,95.05,95.07,95.03,95.01,94.97,94.9,94.89,94.89,-1.0,-1.0,-1.0,94.93,94.93,-1.0,-1.0,-1.0,-1.0,-1.0,-1.0,94.86,-1.0,94.885,-1.0,-1.0,94.86,-1.0,94.87,-1.0,-1.0,94.95,-1.0,-1.0,-1.0,-1.0,94.93,94.94,-1.0,94.96,94.975,-1.0,-1.0,-1.0,-1.0,-1.0,-1.0,-1.0,-1.0,-1.0,-1.0,-1.0,-1.0,-1.0,-1.0,-1.0,94.99,-1.0,94.99,-1.0,95.0,-1.0,-1.0,95.06,-1.0,-1.0,-1.0,-1.0,-1.0,-1.0,-1.0,-1.0,95.11,95.13,95.16,95.18,95.21,95.21,-1.0,95.2,-1.0,-1.0,95.2,-1.0,95.21,95.195,95.14,95.2,-1.0,-1.0,-1.0,95.16,95.19,95.205,95.21,95.21,-1.0,-1.0,-1.0,95.26,95.33,95.34,-1.0,-1.0,-1.0,-1.0,-1.0,95.47,95.545,95.56,-1.0,-1.0,95.505,95.53,-1.0,-1.0,95.48,95.465,-1.0,95.46,95.46,95.48,95.445,-1.0,95.46,-1.0,-1.0,-1.0,-1.0,95.5,-1.0,-1.0,-1.0,95.46,-1.0,-1.0,-1.0,-1.0,-1.0,-1.0,95.395,-1.0,95.375,95.4,95.37,95.37,-1.0,95.47,95.52,95.575,95.605,95.62,95.67,95.63,95.63,95.67,95.73,-1.0,95.79,-1.0,95.895,95.89,95.865,95.86,95.865,-1.0,95.865,95.855,95.89,95.88,95.86,95.875,-1.0,95.87,95.84,95.835,95.78,95.76,95.76,95.67
2019-05-22,-1.0,95.085,95.34,95.38,94.91,94.89,-1.0,-1.0,-1.0,-1.0,94.995,94.96,94.95,-1.0,94.97,95.035,-1.0,-1.0,-1.0,94.84,94.915,94.92,94.86,-1.0,94.97,94.94,95.1,95.095,95.15,95.27,95.29,95.28,95.26,95.21,-1.0,95.23,95.12,94.94,-1.0,-1.0,94.965,94.85,-1.0,94.71,-1.0,94.77,94.84,-1.0,-1.0,-1.0,94.65,94.59,94.63,-1.0,-1.0,94.79,-1.0,94.645,94.83,94.8,94.63,-1.0,-1.0,94.555,94.53,94.47,-1.0,-1.0,94.18,94.15,94.19,94.135,-1.0,-1.0,93.955,93.915,-1.0,93.97,-1.0,-1.0,93.86,-1.0,93.87,93.85,93.88,-1.0,-1.0,-1.0,-1.0,93.63,-1.0,-1.0,93.47,93.36,93.45,-1.0,93.425,93.49,93.5,93.54,93.58,93.55,93.6,93.525,93.48,93.52,-1.0,-1.0,93.67,-1.0,93.515,-1.0,93.39,-1.0,-1.0,-1.0,93.235,93.24,-1.0,-1.0,-1.0,-1.0,93.41,93.32,93.25,-1.0,93.18,93.12,93.1,93.15,93.17,-1.0,93.18,93.2,93.245,93.225,-1.0,93.21,93.27,93.305,93.365,93.28,93.15,93.13,93.15,93.12,-1.0,93.08,-1.0,-1.0,-1.0,92.89,92.84,-1.0,92.93,-1.0,92.79,-1.0,92.84,92.81,92.815,92.815,92.78,-1.0,92.76,92.83,-1.0,-1.0,92.78,-1.0,-1.0,92.855,-1.0,-1.0,-1.0,92.895,92.84,-1.0,-1.0,-1.0,-1.0,92.99,-1.0,92.91,-1.0,-1.0,-1.0,-1.0,92.92,93.0,-1.0,-1.0,92.76,-1.0,-1.0,-1.0,92.77,-1.0,-1.0,-1.0,-1.0,92.69,-1.0,-1.0,92.71,-1.0,92.935,92.87,-1.0,-1.0,-1.0,-1.0,92.815,-1.0,-1.0,92.65,-1.0,-1.0,-1.0,-1.0,-1.0,92.625,-1.0,-1.0,-1.0,-1.0,-1.0,-1.0,-1.0,-1.0,-1.0,-1.0,-1.0,-1.0,92.55,92.575,92.63,-1.0,-1.0,-1.0,92.67,-1.0,-1.0,-1.0,-1.0,-1.0,-1.0,-1.0,-1.0,92.62,92.64,92.79,92.77,92.835,92.82,92.76,-1.0,-1.0,-1.0,-1.0,92.81,-1.0,92.755,92.73,92.75,92.835,-1.0,-1.0,-1.0,-1.0,-1.0,-1.0,92.765,92.77,92.625,92.625,-1.0,92.64,92.61,-1.0,-1.0,-1.0,-1.0,-1.0,92.59,92.55,92.545,92.525,92.515,92.51,92.57,92.54,92.54,92.59,92.55,92.57,92.65,92.6,92.58,-1.0,92.5,-1.0,-1.0,92.59,92.57,-1.0,-1.0,-1.0,-1.0,-1.0,-1.0,-1.0,92.63,-1.0,-1.0,92.6,92.615,92.675,92.68,-1.0,92.67,92.66,92.66,92.57,92.535,-1.0,92.525,-1.0,92.45,92.415,-1.0,92.575,92.46,-1.0,-1.0,92.65,92.78,-1.0,92.78,92.75,-1.0,-1.0,92.705,92.72,92.71,92.75,92.68,-1.0,92.615,92.685,-1.0,92.69,92.745,92.82,-1.0,92.95,-1.0,92.98,-1.0,92.84,92.8,92.83,-1.0,-1.0,-1.0,92.75,92.69,92.73,92.725,92.77,-1.0,-1.0,92.84,92.79,92.81,92.8,92.79,92.73,92.665,92.695,92.81,92.855,92.87,92.92,92.955,92.925,92.93,92.99,92.95,92.93
2019-05-23,90.56,90.12,90.23,89.85,89.32,89.26,-1.0,89.1,89.19,88.81,88.57,88.73,-1.0,88.03,88.22,88.08,88.14,88.24,88.3,88.57,-1.0,88.285,88.41,88.62,-1.0,88.41,-1.0,88.51,-1.0,88.33,88.3,88.32,88.37,88.475,88.51,88.42,88.44,88.5,88.38,88.235,88.22,88.07,88.14,88.045,88.045,88.105,88.04,87.97,88.005,87.7,87.625,87.63,87.58,87.59,87.56,87.495,87.4,87.32,87.22,87.445,87.39,87.39,87.645,87.53,87.78,87.875,-1.0,-1.0,87.91,87.885,87.945,87.8,87.975,87.83,87.86,87.765,87.915,87.91,87.875,87.95,87.97,87.98,87.955,88.1,88.22,88.185,88.225,88.28,88.18,88.125,-1.0,87.98,-1.0,88.16,88.305,88.36,88.14,88.365,88.37,-1.0,-1.0,88.43,88.52,88.53,-1.0,88.59,-1.0,88.6,88.56,88.43,88.44,88.51,88.505,88.335,88.18,88.34,88.34,88.26,88.145,88.14,88.14,88.03,88.16,88.17,88.12,-1.0,-1.0,-1.0,-1.0,88.135,88.04,-1.0,88.02,88.125,88.14,88.11,88.065,88.02,88.1,-1.0,88.07,88.115,88.13,88.09,-1.0,87.97,87.97,88.02,87.97,87.985,88.07,-1.0,88.11,88.12,88.305,88.26,88.295,88.205,88.23,88.15,-1.0,88.34,-1.0,88.31,88.33,88.36,88.28,88.21,88.18,88.13,88.185,-1.0,88.03,88.05,88.08,88.1,88.1,88.05,88.08,-1.0,-1.0,88.13,88.095,88.115,88.115,88.15,88.075,88.11,88.115,88.13,88.08,88.08,88.12,88.09,88.04,88.03,88.1,88.18,88.17,88.23,-1.0,-1.0,88.31,88.19,88.36,-1.0,88.17,88.15,-1.0,88.08,88.06,88.065,88.0,88.01,88.0,-1.0,-1.0,-1.0,88.08,-1.0,-1.0,88.03,88.04,87.94,87.965,87.87,87.865,87.92,87.79,-1.0,87.83,-1.0,-1.0,-1.0,-1.0,-1.0,87.915,-1.0,-1.0,88.065,-1.0,88.04,87.99,-1.0,-1.0,88.12,-1.0,88.16,88.23,88.225,-1.0,88.15,-1.0,-1.0,-1.0,88.08,88.04,88.035,88.03,88.025,88.03,88.0,88.0,88.0,87.89,87.87,-1.0,87.86,87.94,87.97,88.05,88.03,87.96,-1.0,87.9,87.93,-1.0,87.95,87.93,87.98,87.92,87.9,87.91,87.9,-1.0,87.9,87.95,87.92,-1.0,-1.0,87.99,88.045,88.13,88.17,88.18,88.17,88.16,88.15,88.16,88.09,88.13,88.08,88.02,-1.0,88.09,88.16,88.13,-1.0,88.14,88.1,88.1,88.09,88.03,87.94,87.91,87.95,-1.0,87.93,-1.0,-1.0,87.825,87.95,87.96,87.93,88.04,88.04,88.02,88.03,-1.0,88.065,-1.0,88.08,88.0,-1.0,87.95,87.96,-1.0,87.955,87.955,87.93,-1.0,-1.0,87.93,87.89,87.965,-1.0,88.055,88.12,88.345,88.255,-1.0,88.44,-1.0,88.51,88.45,88.43,-1.0,88.58,-1.0,-1.0,88.54,-1.0,88.7,88.845,88.86,88.88,88.975,88.95,88.92,88.86,88.73,88.7,88.605,88.54,88.63,88.7,88.7,88.64,88.66,88.66,88.62,88.67,88.65,88.73,88.78,88.77,88.7,88.71,88.67,88.69
2019-05-24,-1.0,-1.0,-1.0,89.925,-1.0,-1.0,89.615,89.36,89.5,-1.0,89.5,-1.0,-1.0,89.18,89.16,-1.0,-1.0,89.11,89.0,-1.0,-1.0,88.81,88.87,88.92,88.9,88.91,89.09,-1.0,-1.0,89.13,89.15,89.165,89.2,89.24,89.23,89.315,-1.0,89.04,-1.0,88.93,88.89,89.0,88.97,88.95,88.88,-1.0,89.055,89.11,89.07,89.09,88.95,89.11,89.17,89.165,89.105,89.04,89.03,89.1,89.08,89.025,88.96,88.93,88.87,-1.0,88.75,88.55,88.53,88.57,-1.0,-1.0,88.475,88.42,-1.0,88.39,88.34,88.365,-1.0,88.2,-1.0,-1.0,-1.0,88.02,-1.0,-1.0,87.96,-1.0,87.91,-1.0,88.06,88.03,87.95,87.88,87.87,87.825,87.87,87.775,87.745,87.83,87.7,-1.0,-1.0,87.37,87.29,-1.0,87.3,-1.0,-1.0,-1.0,-1.0,-1.0,87.33,-1.0,87.42,87.38,-1.0,87.48,87.515,87.52,87.47,87.36,87.36,87.46,87.43,-1.0,87.38,-1.0,-1.0,-1.0,87.385,87.355,-1.0,87.33,87.4,-1.0,87.335,87.33,87.285,-1.0,-1.0,-1.0,-1.0,87.25,87.34,-1.0,-1.0,87.32,-1.0,-1.0,87.23,87.22,87.175,87.14,87.14,87.155,87.14,-1.0,-1.0,87.165,87.15,87.12,-1.0,-1.0,87.09,-1.0,-1.0,-1.0,87.005,86.96,86.88,-1.0,86.98,87.0,-1.0,87.01,-1.0,87.0,-1.0,86.96,87.0,87.0,87.0,87.01,87.02,87.23,87.205,87.25,-1.0,-1.0,-1.0,87.36,-1.0,87.22,-1.0,87.25,87.25,-1.0,87.24,87.27,87.26,87.2,-1.0,-1.0,-1.0,-1.0,87.21,87.14,87.17,87.17,87.155,87.18,87.27,-1.0,87.26,87.25,87.24,-1.0,-1.0,-1.0,87.13,87.17,-1.0,87.09,87.165,87.15,-1.0,87.15,87.04,87.17,87.15,87.21,87.11,87.08,-1.0,87.045,87.09,87.065,87.105,87.07,87.07,87.0,87.05,87.08,-1.0,87.04,87.03,-1.0,-1.0,-1.0,-1.0,87.085,87.01,-1.0,-1.0,87.005,-1.0,87.0,-1.0,-1.0,-1.0,-1.0,-1.0,87.015,87.0,87.0,-1.0,86.935,-1.0,-1.0,86.905,87.005,87.0,86.98,87.01,86.99,-1.0,86.965,86.97,-1.0,86.9,86.94,-1.0,86.88,86.81,86.79,86.79,86.75,86.77,-1.0,-1.0,-1.0,86.75,86.75,86.73,86.72,86.725,-1.0,-1.0,-1.0,86.965,86.88,86.89,86.85,-1.0,-1.0,86.82,86.8,-1.0,-1.0,86.77,86.75,86.75,86.75,86.745,86.75,86.75,86.755,-1.0,-1.0,86.92,86.88,86.89,86.9,86.91,-1.0,86.87,86.89,86.85,-1.0,86.895,86.905,86.96,86.885,-1.0,86.945,86.94,86.86,-1.0,86.845,-1.0,86.875,86.905,86.975,86.96,-1.0,87.015,87.035,87.08,87.07,87.02,86.93,86.935,86.975,86.94,86.9,86.87,86.865,86.87,86.86,86.85,86.9,86.93,86.91,86.95,86.935,86.925,86.91,86.92,86.915,86.855,86.88,86.915,86.965,86.995,87.025,87.045,-1.0,87.105,87.11,87.23,87.27,87.24,87.235,87.135,87.15,87.175,87.22,87.15,87.16,87.17,87.08
2019-05-28,87.51,87.63,87.69,87.97,87.775,87.69,87.785,87.785,87.785,87.8,87.775,87.71,87.88,87.945,87.64,87.77,87.86,87.91,87.92,88.05,-1.0,87.94,-1.0,88.015,88.23,-1.0,-1.0,88.085,-1.0,88.16,88.06,88.1,88.14,88.0,87.92,88.07,88.025,-1.0,88.13,88.0,87.91,87.79,87.77,87.855,87.85,87.86,87.89,87.82,87.685,87.72,87.745,87.77,87.89,87.795,87.765,87.69,87.67,87.665,87.56,87.6,87.67,87.595,87.62,87.595,87.55,87.44,87.25,87.225,87.25,87.16,-1.0,87.21,87.245,87.24,87.23,87.19,87.28,87.405,87.39,87.4,87.42,87.245,87.05,87.04,87.15,87.13,87.175,87.05,87.195,87.155,87.29,87.32,87.53,87.48,87.405,87.48,87.63,87.66,87.715,87.69,87.64,87.59,87.585,87.62,87.73,87.65,-1.0,87.675,87.69,-1.0,87.71,-1.0,-1.0,87.705,87.655,87.675,87.61,-1.0,87.53,87.41,87.35,87.28,87.27,87.22,87.225,87.34,87.46,-1.0,87.49,87.39,87.535,87.57,-1.0,87.64,87.59,87.595,-1.0,87.555,-1.0,-1.0,87.4,87.46,87.42,87.33,87.31,87.245,87.26,-1.0,87.36,87.34,87.365,87.385,87.415,-1.0,87.37,-1.0,-1.0,87.415,-1.0,87.365,-1.0,87.355,-1.0,87.5,-1.0,-1.0,-1.0,-1.0,87.535,87.58,87.66,-1.0,87.58,87.61,87.62,87.59,87.65,87.67,-1.0,87.61,87.63,87.62,87.51,87.465,-1.0,-1.0,87.515,-1.0,-1.0,87.43,-1.0,-1.0,87.38,-1.0,-1.0,-1.0,87.38,-1.0,87.44,87.4,-1.0,-1.0,-1.0,87.42,87.38,87.32,87.35,87.32,-1.0,-1.0,87.28,-1.0,87.425,87.51,87.475,-1.0,87.51,-1.0,87.54,87.56,-1.0,-1.0,87.605,87.605,87.57,87.59,-1.0,87.72,87.64,87.55,-1.0,87.56,87.58,-1.0,-1.0,-1.0,87.53,87.56,-1.0,87.59,-1.0,87.58,87.56,87.605,87.63,-1.0,87.665,87.8,-1.0,-1.0,87.71,-1.0,-1.0,-1.0,-1.0,-1.0,87.67,-1.0,87.62,87.67,87.74,87.765,87.68,-1.0,87.61,87.63,87.635,87.565,87.57,87.69,87.61,-1.0,87.545,-1.0,87.49,-1.0,-1.0,87.49,-1.0,-1.0,87.5,-1.0,-1.0,87.325,87.405,87.39,87.41,87.41,87.49,-1.0,-1.0,-1.0,87.47,87.45,87.44,87.4,-1.0,87.415,-1.0,87.43,87.31,87.425,87.41,87.39,87.4,87.33,-1.0,87.25,87.28,87.25,87.14,-1.0,87.03,87.08,87.03,-1.0,87.15,87.15,87.16,87.225,-1.0,87.29,-1.0,87.305,87.37,-1.0,-1.0,87.415,-1.0,-1.0,87.415,-1.0,87.375,87.38,87.38,87.41,87.55,87.585,87.5,87.445,87.415,87.445,87.39,87.38,87.43,87.54,-1.0,-1.0,-1.0,87.525,87.455,-1.0,87.455,87.47,-1.0,87.45,-1.0,87.46,87.46,87.395,87.28,87.23,87.28,87.3,87.3,87.28,87.265,87.24,87.29,87.3,87.26,87.315,87.33,87.285,87.23,87.27,87.25,87.275,87.28,-1.0,87.285,87.255,87.25,87.25,87.26,87.29,87.23,87.22,87.24,87.19
2019-05-29,-1.0,85.93,86.04,85.85,85.62,85.635,85.84,85.97,85.63,85.57,85.575,85.645,85.605,85.605,85.68,85.55,85.55,85.36,85.34,85.29,85.27,-1.0,85.28,85.21,85.32,85.37,85.41,85.44,85.43,85.35,85.245,85.19,85.245,85.245,85.275,85.3,-1.0,-1.0,85.25,85.16,85.34,85.32,85.36,85.51,85.57,-1.0,-1.0,85.73,85.81,85.69,85.65,85.68,85.7,-1.0,85.7,85.695,-1.0,85.855,85.87,85.84,85.82,85.85,-1.0,-1.0,85.68,85.69,85.85,85.77,85.725,-1.0,85.78,85.71,85.74,85.78,85.81,85.72,85.75,85.795,85.78,85.82,85.82,-1.0,85.64,-1.0,85.695,85.66,-1.0,-1.0,85.71,85.73,85.635,85.67,85.68,85.7,85.62,85.58,85.55,85.57,85.625,85.55,-1.0,85.33,-1.0,85.39,-1.0,-1.0,85.04,85.18,85.17,85.14,84.98,84.93,84.825,-1.0,84.84,84.825,84.93,-1.0,-1.0,-1.0,84.85,85.05,-1.0,84.93,84.97,84.99,84.85,-1.0,-1.0,84.77,84.67,84.64,-1.0,84.41,84.45,84.435,84.525,84.49,84.49,84.54,84.51,84.45,84.325,84.3,-1.0,84.31,-1.0,-1.0,-1.0,-1.0,84.44,84.45,84.41,84.34,-1.0,84.44,84.53,84.53,-1.0,-1.0,84.66,84.65,84.69,84.75,84.81,-1.0,84.89,84.87,-1.0,84.88,84.78,84.75,84.7,-1.0,84.645,-1.0,84.74,84.705,-1.0,84.69,-1.0,-1.0,-1.0,84.795,-1.0,84.8,-1.0,84.77,84.83,84.885,84.875,-1.0,-1.0,-1.0,-1.0,84.97,85.075,-1.0,-1.0,84.9,-1.0,-1.0,84.87,84.84,84.91,84.92,-1.0,84.95,84.9,84.95,84.965,85.01,-1.0,-1.0,-1.0,-1.0,-1.0,85.29,85.33,85.49,85.6,85.68,-1.0,85.55,85.475,85.385,85.41,-1.0,85.45,-1.0,85.47,-1.0,-1.0,85.46,85.49,-1.0,-1.0,-1.0,85.66,-1.0,85.65,85.78,85.87,-1.0,85.84,85.92,-1.0,86.0,85.9,-1.0,85.91,85.84,-1.0,85.77,85.82,85.75,85.75,85.75,85.79,-1.0,-1.0,-1.0,-1.0,-1.0,-1.0,-1.0,-1.0,85.62,-1.0,-1.0,85.625,-1.0,85.61,85.65,-1.0,85.65,-1.0,85.75,85.71,85.7,85.63,85.64,85.65,85.53,85.53,85.55,-1.0,-1.0,-1.0,-1.0,85.61,85.695,85.69,85.71,-1.0,85.68,85.79,85.81,85.82,85.85,-1.0,85.76,85.75,-1.0,85.8,85.76,-1.0,85.83,85.83,85.85,85.79,85.785,85.81,85.77,85.72,85.71,-1.0,-1.0,-1.0,85.755,85.73,85.72,85.69,85.735,-1.0,85.75,85.835,85.85,85.925,85.94,85.93,85.89,85.835,85.85,85.855,85.83,85.815,85.825,85.82,85.87,85.87,-1.0,85.91,-1.0,-1.0,86.03,85.97,85.975,86.01,86.08,86.05,86.19,86.17,86.14,86.155,86.18,86.18,86.17,86.15,86.15,86.13,86.13,86.13,86.12,86.22,86.35,86.35,86.33,86.3,86.29,86.36,86.4,86.35,86.405,86.4,86.37,86.35,86.4,86.425,86.52,86.43,86.405,86.42,86.44,86.5,86.53,86.51,86.59,86.54,86.465
2019-05-30,-1.0,-1.0,86.4,86.33,-1.0,86.0,86.07,85.92,85.65,-1.0,-1.0,85.85,85.945,86.07,85.95,86.0,85.95,-1.0,85.97,85.975,85.86,85.89,85.93,85.93,85.87,85.98,86.04,86.08,86.02,86.04,85.82,85.81,85.83,85.91,-1.0,85.7,-1.0,85.55,85.61,85.62,85.61,85.69,85.74,-1.0,85.68,85.735,85.61,85.58,85.41,85.405,-1.0,85.37,85.39,85.35,85.35,85.29,85.33,85.35,85.34,85.305,85.33,85.31,85.215,85.23,85.11,85.125,-1.0,85.01,85.06,85.075,85.05,84.915,84.91,84.915,-1.0,85.02,84.98,84.955,84.95,84.875,84.81,84.785,84.7,84.8,84.895,84.895,85.04,85.215,85.255,85.2,84.83,84.52,84.33,84.24,84.39,84.465,84.3,84.225,84.29,84.355,84.38,84.37,84.55,84.69,84.71,84.57,84.59,84.4,84.4,84.29,84.25,84.22,83.99,-1.0,83.895,83.87,83.87,83.96,-1.0,83.855,83.87,84.0,83.955,83.99,84.12,84.17,84.225,84.26,84.28,84.315,84.34,84.26,84.305,84.23,84.25,84.185,84.175,84.15,84.13,84.02,83.99,83.905,83.81,83.835,83.83,83.91,83.95,83.95,84.035,84.02,84.115,-1.0,84.055,84.03,84.025,83.995,84.06,84.12,84.08,84.02,83.98,83.985,84.04,-1.0,84.03,84.1,84.15,-1.0,84.29,84.32,84.31,84.28,84.27,84.3,-1.0,84.245,84.18,84.19,-1.0,84.185,84.16,84.1,84.115,-1.0,84.16,84.24,84.25,84.25,84.32,84.28,84.33,84.32,-1.0,84.29,84.34,84.37,84.33,84.43,84.445,-1.0,84.455,84.45,84.475,84.46,84.46,84.43,84.46,84.43,84.41,84.44,84.39,84.395,-1.0,-1.0,84.42,84.4,84.32,84.28,84.23,84.22,84.2,84.22,84.2,84.18,84.215,84.19,84.21,84.245,84.22,-1.0,84.32,84.365,84.35,84.32,84.365,84.35,84.39,84.36,84.32,84.33,84.4,84.29,84.265,84.22,84.18,84.16,84.11,84.11,84.12,84.1,84.08,84.07,84.17,84.19,84.18,84.13,84.155,84.09,84.14,84.12,84.14,84.205,84.27,84.32,84.33,84.38,84.315,84.34,84.35,84.37,84.315,84.33,84.4,84.44,84.43,84.42,84.38,84.3,-1.0,84.26,84.28,84.28,-1.0,84.22,84.2,-1.0,84.1,84.09,84.11,84.11,84.165,84.11,84.125,84.085,84.05,83.99,84.01,84.1,84.125,84.125,-1.0,84.025,84.03,84.03,84.04,-1.0,-1.0,83.94,83.95,83.95,84.0,84.04,83.97,83.925,83.93,83.92,83.945,84.015,83.97,84.02,84.04,84.03,84.06,84.02,84.075,-1.0,84.17,84.16,-1.0,84.18,84.12,84.12,84.11,84.12,84.15,84.145,84.01,83.92,83.9,84.01,84.02,84.03,84.05,84.125,84.14,84.03,84.04,84.02,84.035,84.07,84.03,-1.0,84.02,83.99,83.99,83.935,83.91,83.955,83.965,83.95,83.92,83.91,84.005,84.0,83.97,83.99,84.06,84.115,84.08,84.075,84.03,84.04,84.05,84.01,84.02,84.035,84.01,84.04,84.0,83.97,83.995,83.995,84.01,84.005,83.945,83.925,83.885,83.855,83.865,83.86
2019-05-31,82.325,82.22,82.31,82.69,82.835,82.785,82.85,82.83,82.795,82.875,82.85,82.95,83.01,82.99,83.05,83.15,83.27,83.36,83.32,83.195,83.13,83.02,-1.0,-1.0,82.99,82.98,83.01,83.0,83.005,83.17,83.16,83.12,83.13,83.175,83.07,83.09,82.98,83.03,82.995,83.01,83.01,82.95,82.95,82.92,82.85,82.845,83.01,-1.0,83.18,83.2,83.25,83.34,-1.0,83.47,83.56,83.435,83.47,83.52,83.49,83.55,83.56,83.55,83.52,83.58,83.535,83.56,83.59,83.705,83.71,83.7,83.67,83.565,83.56,83.43,83.35,83.45,83.445,83.42,83.39,-1.0,83.525,83.54,83.52,83.64,83.59,83.52,83.45,83.41,83.47,83.38,83.36,83.42,83.39,83.4,83.17,83.065,-1.0,83.05,83.105,-1.0,83.19,-1.0,83.195,83.2,83.06,83.16,83.1,-1.0,-1.0,83.11,83.09,83.155,83.23,-1.0,83.41,-1.0,-1.0,83.29,83.345,83.44,83.31,83.36,83.35,83.32,83.36,83.375,83.38,83.4,83.32,-1.0,83.295,-1.0,83.34,83.25,83.25,83.22,83.15,-1.0,-1.0,83.1,83.13,83.21,83.185,-1.0,83.09,83.13,83.16,-1.0,83.255,83.33,83.27,83.25,83.22,83.14,-1.0,83.08,83.11,83.09,83.11,83.1,83.09,83.09,83.09,83.085,83.05,83.085,83.11,-1.0,83.15,-1.0,-1.0,83.19,83.145,83.075,83.09,83.08,83.045,83.075,83.065,-1.0,83.055,83.05,83.05,-1.0,83.09,83.055,83.04,-1.0,82.96,82.91,82.9,82.905,-1.0,-1.0,82.91,82.91,-1.0,82.93,82.88,82.915,-1.0,-1.0,82.95,82.91,-1.0,82.93,82.84,82.895,82.87,82.855,82.89,-1.0,82.94,-1.0,82.87,82.91,82.86,82.845,82.795,82.81,-1.0,82.92,82.885,82.865,82.83,82.81,-1.0,82.84,-1.0,-1.0,82.79,82.73,82.65,-1.0,82.72,82.7,-1.0,-1.0,82.67,82.69,-1.0,-1.0,82.71,82.73,82.7,82.715,82.705,82.68,82.69,-1.0,-1.0,82.57,82.55,82.53,-1.0,-1.0,82.545,82.53,82.61,-1.0,82.54,82.48,-1.0,82.49,-1.0,82.53,82.57,82.56,-1.0,-1.0,82.55,82.43,-1.0,-1.0,82.355,82.33,82.375,-1.0,82.35,82.37,82.33,82.31,82.28,-1.0,82.25,82.22,82.195,82.25,82.25,-1.0,82.22,82.23,82.22,82.23,82.19,82.12,82.09,82.17,82.12,82.125,82.1,82.09,-1.0,82.04,82.08,82.11,82.11,82.15,82.12,82.1,82.12,82.13,82.25,82.285,82.27,82.34,82.31,82.3,82.305,82.3,82.32,82.37,82.4,82.49,82.42,82.41,82.46,82.43,82.45,-1.0,82.355,82.32,82.345,82.29,82.205,82.13,82.09,82.08,82.045,81.99,81.975,82.0,82.0,82.025,81.98,82.01,81.99,81.985,81.99,81.95,82.04,-1.0,81.985,81.95,81.99,81.95,81.99,81.905,81.83,81.98,-1.0,81.965,81.96,82.0,81.95,81.905,81.92,81.92,81.885,81.88,81.91,81.9,81.92,81.935,81.93,81.915,81.935,81.945,81.995,82.015,82.0,81.915,81.915,81.93,81.92,81.9,81.92,81.93,81.925,81.84
