,09:30,09:31,09:32,09:33,09:34,09:35,09:36,09:37,09:38,09:39,09:40,09:41,09:42,09:43,09:44,09:45,09:46,09:47,09:48,09:49,09:50,09:51,09:52,09:53,09:54,09:55,09:56,09:57,09:58,09:59,10:00,10:01,10:02,10:03,10:04,10:05,10:06,10:07,10:08,10:09,10:10,10:11,10:12,10:13,10:14,10:15,10:16,10:17,10:18,10:19,10:20,10:21,10:22,10:23,10:24,10:25,10:26,10:27,10:28,10:29,10:30,10:31,10:32,10:33,10:34,10:35,10:36,10:37,10:38,10:39,10:40,10:41,10:42,10:43,10:44,10:45,10:46,10:47,10:48,10:49,10:50,10:51,10:52,10:53,10:54,10:55,10:56,10:57,10:58,10:59,11:00,11:01,11:02,11:03,11:04,11:05,11:06,11:07,11:08,11:09,11:10,11:11,11:12,11:13,11:14,11:15,11:16,11:17,11:18,11:19,11:20,11:21,11:22,11:23,11:24,11:25,11:26,11:27,11:28,11:29,11:30,11:31,11:32,11:33,11:34,11:35,11:36,11:37,11:38,11:39,11:40,11:41,11:42,11:43,11:44,11:45,11:46,11:47,11:48,11:49,11:50,11:51,11:52,11:53,11:54,11:55,11:56,11:57,11:58,11:59,12:00,12:01,12:02,12:03,12:04,12:05,12:06,12:07,12:08,12:09,12:10,12:11,12:12,12:13,12:14,12:15,12:16,12:17,12:18,12:19,12:20,12:21,12:22,12:23,12:24,12:25,12:26,12:27,12:28,12:29,12:30,12:31,12:32,12:33,12:34,12:35,12:36,12:37,12:38,12:39,12:40,12:41,12:42,12:43,12:44,12:45,12:46,12:47,12:48,12:49,12:50,12:51,12:52,12:53,12:54,12:55,12:56,12:57,12:58,12:59,13:00,13:01,13:02,13:03,13:04,13:05,13:06,13:07,13:08,13:09,13:10,13:11,13:12,13:13,13:14,13:15,13:16,13:17,13:18,13:19,13:20,13:21,13:22,13:23,13:24,13:25,13:26,13:27,13:28,13:29,13:30,13:31,13:32,13:33,13:34,13:35,13:36,13:37,13:38,13:39,13:40,13:41,13:42,13:43,13:44,13:45,13:46,13:47,13:48,13:49,13:50,13:51,13:52,13:53,13:54,13:55,13:56,13:57,13:58,13:59,14:00,14:01,14:02,14:03,14:04,14:05,14:06,14:07,14:08,14:09,14:10,14:11,14:12,14:13,14:14,14:15,14:16,14:17,14:18,14:19,14:20,14:21,14:22,14:23,14:24,14:25,14:26,14:27,14:28,14:29,14:30,14:31,14:32,14:33,14:34,14:35,14:36,14:37,14:38,14:39,14:40,14:41,14:42,14:43,14:44,14:45,14:46,14:47,14:48,14:49,14:50,14:51,14:52,14:53,14:54,14:55,14:56,14:57,14:58,14:59,15:00,15:01,15:02,15:03,15:04,15:05,15:06,15:07,15:08,15:09,15:10,15:11,15:12,15:13,15:14,15:15,15:16,15:17,15:18,15:19,15:20,15:21,15:22,15:23,15:24,15:25,15:26,15:27,15:28,15:29,15:30,15:31,15:32,15:33,15:34,15:35,15:36,15:37,15:38,15:39,15:40,15:41,15:42,15:43,15:44,15:45,15:46,15:47,15:48,15:49,15:50,15:51,15:52,15:53,15:54,15:55,15:56,15:57,15:58,15:59
2019-04-01,96.182,96.124,95.996,95.673,95.879,95.875,96.115,96.147,96.051,96.261,96.202,96.199,96.218,96.051,96.01,95.924,95.756,95.826,95.804,95.738,95.824,95.842,96.079,96.232,96.276,96.07,96.008,95.984,95.925,95.852,95.952,96.17,96.156,96.209,96.379,96.451,96.364,96.402,96.338,96.218,96.134,96.097,96.178,96.257,96.169,96.109,96.131,96.097,96.073,96.077,96.114,96.124,96.156,96.13,96.095,96.058,96.023,95.968,95.947,96.057,96.145,96.081,96.109,96.081,96.098,96.108,96.192,96.337,96.427,96.443,96.326,96.239,96.238,96.237,96.245,96.243,96.252,96.331,96.326,96.474,96.439,96.401,96.368,96.357,96.36,96.356,96.465,96.53,96.481,96.46,96.514,96.567,96.633,96.766,96.703,96.644,96.603,96.528,96.437,96.455,96.501,96.552,96.604,96.565,96.555,96.558,96.574,96.553,96.615,96.591,96.525,96.436,96.386,96.314,96.339,96.332,96.401,96.417,96.338,96.396,96.349,96.362,96.281,96.22,96.289,96.302,96.177,96.157,96.149,96.098,96.12,96.129,96.005,95.916,95.942,95.981,95.987,96.02,96.055,96.078,96.071,96.071,96.093,96.201,96.256,96.16,96.199,96.266,96.352,96.328,96.32,96.232,96.262,96.274,96.315,96.283,96.271,96.235,96.212,96.168,96.196,96.22,96.209,96.248,96.22,96.267,96.268,96.31,96.266,96.247,96.269,96.33,96.34,96.413,96.511,96.434,96.434,96.393,96.412,96.443,96.454,96.48,96.483,96.459,96.468,96.501,96.508,96.461,96.448,96.523,96.518,96.505,96.495,96.489,96.516,96.578,96.567,96.599,96.641,96.604,96.552,96.551,96.583,96.653,96.669,96.567,96.53,96.603,96.681,96.741,96.722,96.66,96.684,96.693,96.754,96.713,96.681,96.685,96.709,96.786,96.799,96.771,96.777,96.749,96.777,96.777,96.751,96.711,96.704,96.703,96.684,96.662,96.658,96.714,96.711,96.684,96.704,96.739,96.739,96.751,96.796,96.832,96.839,96.862,96.88,96.898,96.858,96.774,96.747,96.783,96.803,96.845,96.819,96.791,96.79,96.81,96.832,96.875,96.836,96.868,96.889,96.918,96.98,96.966,96.96,96.924,96.912,96.906,96.926,96.896,96.941,96.924,96.897,96.835,96.853,96.877,96.886,96.902,96.917,96.997,97.017,97.042,97.052,97.019,97.059,97.083,97.102,97.092,97.113,97.121,97.1,97.012,97.014,96.985,97.019,96.929,96.842,96.87,96.818,96.829,96.848,96.853,96.892,96.865,96.888,96.962,96.967,97.004,96.998,97.015,97.001,96.951,96.896,96.88,96.873,96.869,96.863,96.823,96.83,96.87,96.884,96.9,96.821,96.808,96.811,96.837,96.874,96.942,96.904,96.899,96.891,96.95,96.927,96.902,96.915,96.867,96.858,96.844,96.837,96.836,96.84,96.785,96.727,96.724,96.767,96.73,96.756,96.836,96.873,96.845,96.843,96.905,96.919,96.897,96.953,96.922,96.803,96.822,96.867,96.853,96.799,96.776,96.788,96.781,96.769,96.741,96.787,96.87,96.867,96.849,96.82,96.878,96.893,96.951,96.985,96.942,96.912,96.888,96.934,96.939,96.94,96.904,96.988,96.96,96.967,96.975,97.022,97.037,97.035,96.984
2019-04-02,97.037,97.273,97.27,97.356,97.236,97.065,97.144,97.298,97.385,97.536,97.364,97.193,97.052,97.104,97.161,97.159,97.013,97.011,97.013,96.979,96.918,96.948,96.89,96.971,96.989,97.055,97.167,97.313,97.335,97.33,97.44,97.544,97.627,97.558,97.48,97.647,97.597,97.499,97.596,97.501,97.455,97.416,97.29,97.315,97.442,97.554,97.465,97.503,97.536,97.564,97.639,97.695,97.689,97.676,97.622,97.512,97.45,97.395,97.427,97.422,97.43,97.472,97.462,97.45,97.484,97.494,97.44,97.369,97.296,97.155,97.066,97.13,97.14,97.162,97.215,97.1,97.0,96.979,97.04,97.004,96.944,96.929,96.893,96.928,96.895,96.828,96.741,96.676,96.688,96.643,96.595,96.585,96.451,96.368,96.466,96.604,96.588,96.521,96.593,96.523,96.539,96.59,96.613,96.51,96.285,96.215,96.254,96.489,96.495,96.474,96.528,96.548,96.618,96.667,96.691,96.636,96.656,96.612,96.566,96.641,96.687,96.675,96.596,96.556,96.722,96.729,96.612,96.577,96.482,96.537,96.551,96.641,96.663,96.705,96.707,96.703,96.661,96.689,96.667,96.609,96.688,96.771,96.78,96.836,96.878,96.901,96.86,96.81,96.859,96.863,96.815,96.845,96.871,96.834,96.883,96.875,96.908,96.897,96.912,96.887,96.814,96.83,96.817,96.786,96.727,96.706,96.644,96.652,96.669,96.638,96.636,96.634,96.66,96.685,96.653,96.637,96.616,96.526,96.426,96.475,96.484,96.453,96.48,96.434,96.438,96.487,96.554,96.529,96.52,96.574,96.526,96.546,96.557,96.547,96.566,96.509,96.458,96.415,96.362,96.399,96.44,96.405,96.401,96.439,96.48,96.524,96.493,96.479,96.505,96.516,96.476,96.469,96.499,96.445,96.427,96.399,96.448,96.504,96.63,96.684,96.632,96.572,96.6,96.587,96.638,96.58,96.578,96.543,96.548,96.601,96.61,96.606,96.627,96.603,96.56,96.555,96.537,96.514,96.499,96.489,96.476,96.464,96.43,96.413,96.433,96.49,96.53,96.534,96.534,96.512,96.495,96.486,96.479,96.445,96.399,96.406,96.382,96.316,96.282,96.26,96.232,96.243,96.31,96.31,96.329,96.43,96.41,96.358,96.337,96.334,96.363,96.364,96.365,96.401,96.474,96.495,96.499,96.505,96.466,96.463,96.439,96.464,96.49,96.426,96.423,96.362,96.351,96.347,96.341,96.31,96.276,96.256,96.219,96.171,96.214,96.238,96.242,96.221,96.272,96.278,96.283,96.274,96.325,96.302,96.274,96.302,96.3,96.295,96.258,96.287,96.311,96.34,96.33,96.334,96.331,96.332,96.35,96.318,96.262,96.233,96.221,96.249,96.2,96.136,96.075,96.042,96.068,96.091,96.185,96.195,96.207,96.26,96.265,96.29,96.284,96.356,96.298,96.286,96.248,96.2,96.215,96.248,96.227,96.266,96.315,96.294,96.245,96.261,96.278,96.292,96.248,96.192,96.163,96.206,96.251,96.212,96.154,96.182,96.11,96.145,96.17,96.204,96.219,96.218,96.243,96.281,96.289,96.306,96.359,96.362,96.337,96.364,96.372,96.349,96.32,96.256,96.316,96.327,96.351,96.316,96.297,96.295,96.27,96.252,96.281,96.251,96.188,96.156,96.166,96.077
2019-04-03,96.629,96.317,96.197,95.993,95.951,96.096,96.272,96.353,96.307,96.099,96.023,96.008,96.054,96.077,96.111,96.076,96.196,96.221,96.102,96.109,96.177,96.065,95.948,95.902,95.96,95.957,95.93,95.846,95.853,95.789,95.669,95.597,95.617,95.516,95.473,95.48,95.427,95.483,95.615,95.671,95.816,95.861,95.857,95.829,95.806,95.878,96.02,96.081,96.127,96.064,96.157,96.067,96.011,96.121,96.052,96.109,95.987,95.907,95.851,95.838,95.592,95.602,95.529,95.573,95.69,95.65,95.548,95.599,95.615,95.649,95.879,95.944,95.982,95.965,95.904,95.974,95.979,96.008,95.973,95.942,95.993,96.004,96.14,96.193,96.16,96.262,96.129,96.084,96.115,96.048,96.005,96.087,96.115,96.223,96.216,96.282,96.192,96.081,96.087,96.037,96.035,96.012,95.88,95.793,95.818,95.755,95.659,95.669,95.723,95.681,95.593,95.524,95.532,95.543,95.492,95.475,95.431,95.308,95.425,95.411,95.421,95.446,95.412,95.431,95.372,95.41,95.314,95.281,95.268,95.281,95.325,95.268,95.219,95.164,95.171,95.212,95.153,95.103,95.194,95.198,95.284,95.321,95.357,95.313,95.346,95.402,95.407,95.495,95.451,95.344,95.402,95.428,95.436,95.47,95.472,95.537,95.475,95.512,95.573,95.581,95.599,95.519,95.418,95.314,95.32,95.379,95.394,95.468,95.416,95.445,95.414,95.375,95.389,95.389,95.458,95.408,95.39,95.405,95.358,95.282,95.314,95.353,95.352,95.315,95.151,95.112,95.153,95.122,95.131,95.159,95.189,95.189,95.147,95.085,95.0,94.868,94.874,94.921,94.898,94.862,94.836,94.89,94.837,94.832,94.784,94.734,94.771,94.75,94.727,94.664,94.62,94.69,94.721,94.76,94.75,94.717,94.743,94.687,94.649,94.748,94.787,94.733,94.695,94.638,94.621,94.596,94.58,94.516,94.537,94.536,94.536,94.564,94.595,94.608,94.609,94.555,94.549,94.576,94.585,94.559,94.555,94.516,94.515,94.545,94.565,94.517,94.509,94.495,94.516,94.493,94.449,94.39,94.35,94.353,94.371,94.375,94.354,94.336,94.365,94.32,94.282,94.282,94.242,94.246,94.242,94.218,94.181,94.026,94.096,94.114,94.17,94.105,94.05,93.953,93.994,93.981,93.984,93.927,93.884,93.922,93.939,93.906,93.874,93.82,93.805,93.834,93.86,93.835,93.822,93.804,93.81,93.894,93.941,93.994,94.0,94.054,94.056,94.111,94.173,94.221,94.192,94.194,94.216,94.199,94.199,94.195,94.209,94.261,94.278,94.258,94.225,94.273,94.244,94.187,94.155,94.199,94.193,94.188,94.199,94.191,94.212,94.286,94.326,94.38,94.394,94.359,94.341,94.356,94.335,94.337,94.296,94.331,94.356,94.345,94.339,94.364,94.354,94.332,94.305,94.258,94.229,94.217,94.162,94.162,94.189,94.154,94.164,94.187,94.237,94.27,94.16,94.115,94.209,94.169,94.153,94.215,94.25,94.3,94.357,94.398,94.369,94.342,94.37,94.34,94.385,94.297,94.32,94.363,94.298,94.308,94.323,94.327,94.346,94.361,94.385,94.374,94.348,94.313,94.3,94.309,94.334,94.284,94.226,94.081,94.009,94.03,93.995,93.95,93.881,93.871
2019-04-04,94.061,93.893,93.821,94.0,94.138,94.22,94.3,94.196,94.313,94.351,94.335,94.337,94.206,94.174,94.107,94.016,93.922,93.782,93.766,93.667,93.643,93.819,93.868,93.98,93.992,93.813,93.725,93.639,93.667,93.63,93.606,93.638,93.603,93.625,93.587,93.544,93.552,93.564,93.524,93.485,93.491,93.467,93.508,93.549,93.462,93.42,93.444,93.478,93.544,93.524,93.536,93.58,93.661,93.628,93.609,93.535,93.537,93.51,93.499,93.49,93.282,93.296,93.265,93.237,93.195,93.141,93.028,93.076,93.031,93.018,93.002,92.971,92.946,93.006,93.117,93.229,93.282,93.209,93.269,93.305,93.301,93.286,93.255,93.197,93.183,93.173,93.068,93.081,93.095,93.072,93.049,93.018,93.106,93.095,93.159,93.173,93.235,93.295,93.257,93.278,93.21,93.325,93.378,93.388,93.398,93.356,93.285,93.223,93.215,93.184,93.045,93.008,93.026,93.067,93.083,93.26,93.298,93.317,93.373,93.359,93.328,93.263,93.212,93.292,93.304,93.32,93.429,93.573,93.621,93.66,93.609,93.595,93.68,93.667,93.645,93.649,93.738,93.731,93.751,93.718,93.686,93.684,93.705,93.719,93.705,93.706,93.72,93.671,93.723,93.755,93.778,93.76,93.719,93.711,93.717,93.715,93.704,93.703,93.686,93.686,93.584,93.547,93.529,93.493,93.434,93.334,93.286,93.231,93.22,93.31,93.445,93.479,93.597,93.618,93.536,93.528,93.468,93.51,93.529,93.547,93.5,93.555,93.528,93.462,93.443,93.532,93.535,93.502,93.487,93.47,93.474,93.449,93.466,93.53,93.594,93.54,93.492,93.494,93.508,93.569,93.594,93.614,93.634,93.656,93.657,93.701,93.686,93.676,93.652,93.608,93.594,93.597,93.537,93.48,93.408,93.464,93.496,93.493,93.507,93.497,93.451,93.478,93.516,93.512,93.456,93.466,93.478,93.484,93.561,93.596,93.573,93.552,93.535,93.577,93.576,93.533,93.54,93.555,93.577,93.56,93.588,93.586,93.667,93.642,93.615,93.632,93.703,93.676,93.664,93.681,93.64,93.627,93.619,93.554,93.59,93.609,93.618,93.653,93.557,93.491,93.481,93.59,93.59,93.686,93.747,93.66,93.623,93.676,93.66,93.633,93.601,93.607,93.615,93.61,93.591,93.591,93.626,93.63,93.65,93.729,93.717,93.656,93.658,93.655,93.68,93.665,93.686,93.665,93.658,93.671,93.65,93.657,93.677,93.644,93.6,93.518,93.564,93.579,93.487,93.473,93.459,93.466,93.606,93.668,93.631,93.659,93.72,93.703,93.712,93.654,93.667,93.637,93.597,93.547,93.507,93.493,93.479,93.464,93.402,93.398,93.315,93.297,93.327,93.404,93.426,93.413,93.423,93.406,93.334,93.324,93.433,93.42,93.404,93.372,93.36,93.393,93.442,93.406,93.343,93.373,93.417,93.519,93.533,93.495,93.423,93.432,93.518,93.523,93.514,93.459,93.497,93.501,93.431,93.448,93.496,93.491,93.457,93.421,93.435,93.408,93.443,93.42,93.424,93.471,93.493,93.495,93.5,93.535,93.566,93.525,93.526,93.537,93.494,93.483,93.486,93.525,93.586,93.635,93.63,93.569,93.598,93.616,93.592,93.627,93.57,93.596,93.596,93.616,93.582,93.594
2019-04-05,94.441,94.456,94.764,94.681,94.71,94.56,94.664,94.663,94.661,94.65,94.581,94.604,94.591,94.596,94.671,94.783,94.91,95.106,95.228,95.307,95.396,95.416,95.346,95.301,95.281,95.19,95.253,95.329,95.454,95.495,95.567,95.558,95.688,95.682,95.722,95.894,95.99,96.089,96.217,96.259,96.221,96.217,96.269,96.265,96.286,96.353,96.344,96.32,96.396,96.466,96.517,96.552,96.567,96.591,96.561,96.599,96.612,96.527,96.413,96.454,96.409,96.48,96.624,96.594,96.595,96.542,96.614,96.672,96.68,96.631,96.577,96.553,96.642,96.607,96.685,96.731,96.789,96.858,96.881,96.854,96.878,96.934,97.009,97.063,97.043,97.089,97.124,97.037,96.959,97.103,97.013,97.077,97.093,97.086,96.969,96.915,97.004,97.063,97.146,97.174,97.137,97.197,97.28,97.43,97.439,97.403,97.429,97.467,97.435,97.416,97.609,97.625,97.593,97.561,97.501,97.454,97.261,97.116,97.063,97.094,97.066,96.993,96.939,96.903,96.781,96.815,96.953,96.968,96.936,96.913,96.931,97.051,97.109,97.061,97.105,97.19,97.126,97.187,97.101,97.104,97.067,97.042,97.096,97.136,97.232,97.222,97.143,97.129,97.104,97.088,97.121,97.171,97.146,97.051,97.091,97.078,97.056,97.062,97.108,97.117,97.137,97.156,97.164,97.176,97.141,97.176,97.211,97.185,97.2,97.192,97.259,97.267,97.237,97.191,97.239,97.305,97.316,97.341,97.349,97.378,97.41,97.428,97.361,97.32,97.39,97.387,97.321,97.27,97.193,97.179,97.167,97.179,97.219,97.22,97.285,97.329,97.443,97.478,97.462,97.438,97.491,97.52,97.573,97.614,97.644,97.629,97.701,97.76,97.768,97.787,97.802,97.846,97.854,97.888,97.902,97.895,97.913,97.909,98.022,98.034,98.027,98.038,98.033,98.015,98.037,98.022,97.993,98.076,98.097,98.107,98.078,98.153,98.217,98.247,98.222,98.18,98.167,98.175,98.212,98.2,98.185,98.186,98.124,98.061,98.089,98.127,98.121,98.167,98.245,98.338,98.336,98.295,98.258,98.251,98.212,98.152,98.204,98.17,98.187,98.204,98.223,98.238,98.231,98.24,98.252,98.236,98.271,98.311,98.342,98.381,98.421,98.407,98.406,98.36,98.452,98.5,98.498,98.438,98.281,98.261,98.247,98.206,98.236,98.325,98.316,98.362,98.463,98.509,98.487,98.392,98.362,98.267,98.279,98.314,98.284,98.246,98.228,98.266,98.353,98.395,98.39,98.397,98.361,98.295,98.338,98.329,98.298,98.253,98.267,98.315,98.357,98.373,98.408,98.4,98.364,98.295,98.243,98.231,98.221,98.193,98.188,98.172,98.205,98.171,98.156,98.16,98.177,98.258,98.321,98.332,98.378,98.388,98.428,98.469,98.509,98.6,98.491,98.397,98.4,98.37,98.389,98.384,98.404,98.423,98.455,98.403,98.44,98.407,98.441,98.408,98.429,98.506,98.489,98.44,98.415,98.41,98.405,98.43,98.456,98.438,98.434,98.486,98.507,98.561,98.583,98.513,98.425,98.449,98.43,98.46,98.507,98.528,98.515,98.439,98.449,98.431,98.491,98.509,98.502,98.46,98.46,98.418,98.449,98.442,98.506,98.56,98.614,98.634,98.65,98.679
2019-04-08,99.123,99.513,99.714,99.879,99.969,99.735,99.847,99.769,99.602,99.524,99.896,100.092,100.325,100.476,100.192,100.385,100.7,100.786,100.916,100.783,100.852,100.791,100.823,100.791,100.625,100.5,100.217,100.217,100.099,100.246,100.149,100.077,100.095,100.183,100.035,99.998,100.129,100.053,100.006,99.979,100.07,100.05,99.99,100.053,100.076,100.123,100.167,100.319,100.467,100.549,100.459,100.347,100.36,100.382,100.397,100.404,100.313,100.312,100.361,100.294,100.205,100.151,100.114,100.16,100.138,100.104,100.221,100.232,100.274,100.316,100.361,100.325,100.338,100.281,100.206,100.108,100.09,100.131,100.2,100.094,100.211,100.249,100.256,100.279,100.243,100.269,100.207,100.185,100.13,100.143,100.2,100.153,100.047,99.979,99.988,99.964,99.968,99.979,100.002,99.919,99.951,99.915,99.815,99.77,99.612,99.619,99.626,99.398,99.296,99.242,99.118,99.15,99.275,99.263,99.2,99.207,99.198,99.227,99.305,99.286,99.403,99.453,99.467,99.551,99.578,99.526,99.418,99.437,99.504,99.459,99.389,99.362,99.39,99.44,99.393,99.428,99.398,99.465,99.471,99.562,99.501,99.453,99.4,99.476,99.459,99.406,99.45,99.386,99.433,99.393,99.361,99.349,99.289,99.281,99.28,99.33,99.341,99.341,99.211,99.196,99.195,99.18,99.159,99.117,99.109,99.174,99.266,99.318,99.358,99.401,99.345,99.331,99.294,99.342,99.36,99.375,99.412,99.438,99.448,99.407,99.367,99.351,99.211,99.223,99.118,99.196,99.223,99.243,99.294,99.325,99.355,99.437,99.445,99.447,99.493,99.534,99.573,99.519,99.506,99.412,99.483,99.487,99.479,99.523,99.511,99.544,99.599,99.628,99.607,99.574,99.495,99.49,99.458,99.459,99.454,99.417,99.409,99.442,99.49,99.433,99.465,99.509,99.485,99.463,99.42,99.327,99.326,99.379,99.403,99.388,99.338,99.329,99.335,99.411,99.394,99.382,99.393,99.412,99.413,99.343,99.307,99.341,99.411,99.353,99.373,99.333,99.297,99.383,99.419,99.417,99.487,99.467,99.437,99.474,99.426,99.446,99.491,99.497,99.5,99.45,99.495,99.455,99.416,99.492,99.538,99.498,99.468,99.485,99.505,99.502,99.503,99.461,99.381,99.438,99.452,99.465,99.356,99.331,99.375,99.335,99.362,99.314,99.323,99.357,99.316,99.318,99.293,99.308,99.301,99.326,99.318,99.297,99.29,99.248,99.284,99.287,99.289,99.328,99.312,99.289,99.274,99.267,99.275,99.349,99.397,99.378,99.385,99.385,99.387,99.395,99.327,99.245,99.276,99.311,99.264,99.273,99.282,99.275,99.285,99.291,99.294,99.367,99.363,99.43,99.443,99.429,99.434,99.421,99.422,99.4,99.38,99.301,99.297,99.365,99.333,99.3,99.292,99.282,99.25,99.303,99.343,99.358,99.368,99.343,99.333,99.285,99.335,99.335,99.362,99.396,99.463,99.458,99.455,99.446,99.402,99.361,99.398,99.41,99.387,99.374,99.349,99.398,99.409,99.417,99.349,99.345,99.409,99.484,99.496,99.43,99.405,99.39,99.398,99.394,99.362,99.34,99.384,99.358,99.382,99.39,99.377,99.408,99.375,99.36,99.373,99.333,99.306,99.267,99.29,99.288
2019-04-09,98.669,98.592,98.486,98.261,97.991,97.827,97.618,97.651,97.696,97.716,97.862,97.79,97.757,97.813,97.993,97.927,98.103,98.112,98.101,98.093,98.164,98.251,98.317,98.183,98.274,98.267,98.191,98.228,98.272,98.147,98.141,98.112,98.037,97.803,97.728,97.734,97.725,97.784,97.729,97.728,97.666,97.774,97.763,97.717,97.638,97.674,97.641,97.656,97.639,97.634,97.57,97.627,97.683,97.665,97.785,97.946,98.009,98.01,98.072,98.058,97.968,97.867,97.793,97.819,97.858,97.899,98.017,98.063,98.001,97.876,97.882,97.778,97.711,97.643,97.641,97.67,97.618,97.678,97.624,97.503,97.444,97.518,97.544,97.48,97.536,97.564,97.602,97.528,97.571,97.723,97.701,97.63,97.603,97.744,97.799,97.707,97.821,97.802,97.763,97.667,97.595,97.592,97.539,97.514,97.583,97.68,97.74,97.767,97.691,97.636,97.663,97.736,97.738,97.697,97.648,97.609,97.679,97.709,97.735,97.731,97.79,97.98,98.055,98.055,98.011,97.981,98.082,98.025,98.027,98.125,98.111,98.104,98.188,98.259,98.224,98.248,98.315,98.314,98.305,98.399,98.415,98.521,98.585,98.589,98.662,98.687,98.638,98.652,98.664,98.66,98.727,98.796,98.788,98.815,98.849,98.861,98.839,98.862,98.913,99.009,99.01,99.007,99.016,99.091,99.15,99.209,99.219,99.182,99.248,99.211,99.243,99.251,99.235,99.206,99.259,99.323,99.328,99.332,99.352,99.324,99.312,99.36,99.326,99.367,99.397,99.406,99.306,99.353,99.358,99.385,99.42,99.444,99.464,99.554,99.52,99.479,99.485,99.454,99.407,99.38,99.301,99.239,99.171,99.148,99.104,99.096,99.064,99.111,99.058,98.991,98.989,98.975,98.996,99.007,98.966,98.952,98.942,98.963,99.013,99.026,99.023,99.071,99.015,98.993,98.981,98.98,98.944,98.991,98.991,98.923,98.91,98.891,98.9,98.851,98.866,98.893,98.861,98.835,98.84,98.826,98.77,98.699,98.71,98.653,98.674,98.66,98.655,98.688,98.748,98.82,98.873,98.97,98.946,98.898,98.901,98.897,98.887,98.928,98.924,98.899,98.867,98.875,98.876,98.864,98.847,98.822,98.873,98.87,98.874,98.891,98.87,98.844,98.834,98.786,98.797,98.796,98.799,98.759,98.726,98.7,98.659,98.636,98.623,98.579,98.621,98.707,98.744,98.728,98.712,98.71,98.712,98.715,98.712,98.701,98.676,98.673,98.695,98.761,98.786,98.766,98.774,98.791,98.729,98.716,98.695,98.68,98.674,98.656,98.708,98.711,98.684,98.655,98.632,98.616,98.6,98.522,98.483,98.449,98.433,98.468,98.536,98.542,98.47,98.462,98.571,98.513,98.505,98.47,98.368,98.383,98.424,98.513,98.513,98.501,98.528,98.539,98.49,98.464,98.483,98.498,98.513,98.528,98.508,98.553,98.55,98.54,98.528,98.486,98.442,98.438,98.314,98.321,98.345,98.334,98.343,98.31,98.275,98.256,98.378,98.39,98.393,98.453,98.461,98.493,98.508,98.544,98.548,98.511,98.507,98.561,98.599,98.604,98.623,98.597,98.601,98.59,98.64,98.678,98.684,98.681,98.666,98.667,98.656,98.654,98.635,98.528,98.531,98.509,98.485,98.524
2019-04-10,99.34,99.287,99.096,99.58,99.731,99.732,99.966,99.96,99.705,99.576,99.527,99.778,99.705,99.692,99.627,99.555,99.757,99.807,99.727,99.763,99.734,99.609,99.515,99.6,99.565,99.512,99.45,99.378,99.516,99.522,99.349,99.379,99.413,99.314,99.249,99.266,99.458,99.232,99.127,99.188,99.155,99.172,99.223,99.273,99.184,99.128,99.107,99.1,99.086,99.066,99.096,99.13,99.079,99.011,99.005,98.952,98.93,98.956,98.908,98.964,98.99,99.085,99.003,98.919,98.951,99.013,98.992,98.844,98.817,98.771,98.831,99.008,99.068,98.971,98.846,98.826,98.78,98.846,98.819,98.762,98.81,98.748,98.788,98.854,98.853,98.835,98.944,98.832,98.802,98.844,98.841,98.895,98.911,98.988,98.999,98.955,99.002,98.996,98.976,98.989,98.931,98.937,98.884,98.818,98.828,98.891,98.914,98.853,98.789,98.783,98.759,98.84,98.807,98.81,98.864,98.971,98.89,98.846,98.818,98.852,98.9,98.949,98.947,98.984,99.036,98.987,98.952,98.941,98.847,98.804,98.831,98.798,98.851,98.85,98.844,98.876,98.921,98.947,98.958,98.912,98.857,98.859,98.853,98.916,98.955,99.018,99.034,99.019,99.025,99.063,99.137,99.173,99.18,99.2,99.181,99.24,99.255,99.324,99.398,99.358,99.374,99.391,99.462,99.4,99.252,99.196,99.294,99.356,99.397,99.411,99.504,99.534,99.513,99.532,99.526,99.518,99.497,99.452,99.405,99.376,99.307,99.284,99.29,99.323,99.33,99.285,99.385,99.405,99.468,99.421,99.39,99.386,99.347,99.361,99.344,99.349,99.309,99.259,99.257,99.255,99.25,99.243,99.277,99.281,99.23,99.248,99.23,99.227,99.191,99.185,99.183,99.166,99.133,99.137,99.103,99.159,99.156,99.151,99.11,99.126,99.228,99.209,99.162,99.133,99.16,99.19,99.134,99.079,99.137,99.156,99.173,99.129,99.075,99.11,99.121,99.117,99.073,99.005,98.938,98.972,99.008,98.994,98.922,98.939,98.956,98.953,98.905,98.862,98.885,98.913,98.915,98.897,98.875,98.915,98.946,98.949,98.906,98.882,98.912,98.912,98.922,98.878,98.853,98.874,98.852,98.815,98.828,98.84,98.844,98.805,98.851,98.841,98.863,98.8,98.754,98.764,98.721,98.759,98.759,98.682,98.732,98.71,98.63,98.646,98.624,98.612,98.618,98.625,98.623,98.524,98.524,98.615,98.518,98.489,98.49,98.524,98.515,98.491,98.489,98.523,98.536,98.525,98.478,98.436,98.48,98.495,98.582,98.591,98.617,98.67,98.698,98.741,98.741,98.742,98.719,98.703,98.731,98.74,98.753,98.731,98.753,98.721,98.714,98.674,98.679,98.71,98.768,98.746,98.715,98.705,98.734,98.813,98.898,98.909,99.067,98.984,98.96,98.952,98.949,98.977,98.91,98.872,98.86,98.859,98.838,98.841,98.828,98.793,98.775,98.704,98.626,98.63,98.669,98.685,98.682,98.694,98.712,98.739,98.824,98.829,98.84,98.805,98.841,98.866,98.827,98.808,98.769,98.761,98.743,98.722,98.728,98.734,98.708,98.637,98.615,98.614,98.609,98.589,98.566,98.585,98.582,98.587,98.5,98.481,98.472,98.454,98.539,98.592,98.629,98.686
2019-04-11,98.476,98.267,98.118,98.079,97.94,98.145,98.051,98.078,98.118,98.135,98.108,97.999,97.975,98.07,98.225,98.436,98.795,98.884,98.949,98.953,98.998,99.03,98.992,98.966,99.012,98.94,98.943,99.008,98.974,99.097,99.188,99.254,99.359,99.345,99.337,99.346,99.253,99.221,99.21,99.159,99.156,99.192,99.165,99.254,99.304,99.39,99.397,99.459,99.478,99.526,99.609,99.721,99.676,99.658,99.661,99.638,99.532,99.447,99.466,99.38,99.39,99.364,99.399,99.446,99.483,99.459,99.406,99.479,99.549,99.555,99.549,99.54,99.467,99.47,99.425,99.462,99.497,99.404,99.3,99.242,99.298,99.283,99.277,99.296,99.204,99.021,99.005,99.068,99.012,98.954,98.881,98.882,98.752,98.663,98.693,98.6,98.597,98.718,98.797,98.873,98.825,98.816,98.878,99.005,99.061,99.126,99.079,99.049,98.906,98.796,98.752,98.796,98.713,98.622,98.599,98.628,98.666,98.663,98.584,98.62,98.558,98.552,98.578,98.508,98.55,98.573,98.456,98.467,98.45,98.356,98.121,98.011,98.07,98.1,98.087,98.205,98.173,98.221,98.249,98.253,98.304,98.159,98.032,97.951,98.009,98.017,98.159,98.163,98.095,98.056,97.96,97.99,98.026,98.019,98.017,97.991,98.056,98.118,98.079,98.008,98.043,98.064,98.08,98.059,98.158,98.179,98.071,98.034,98.007,98.071,98.009,98.015,98.003,98.082,98.095,98.079,97.931,97.833,97.752,97.737,97.753,97.766,97.81,97.796,97.735,97.709,97.812,97.848,97.789,97.863,97.854,97.753,97.751,97.856,97.93,98.037,98.051,98.06,98.126,98.107,98.159,98.246,98.312,98.299,98.349,98.397,98.32,98.37,98.349,98.373,98.46,98.489,98.431,98.464,98.459,98.471,98.449,98.435,98.409,98.496,98.515,98.483,98.453,98.428,98.443,98.397,98.358,98.429,98.511,98.599,98.583,98.605,98.709,98.837,98.902,98.838,98.667,98.545,98.656,98.755,98.775,98.664,98.653,98.728,98.756,98.805,98.714,98.637,98.569,98.595,98.556,98.526,98.539,98.551,98.565,98.591,98.665,98.697,98.824,98.86,98.898,98.886,98.823,98.83,98.832,98.88,98.9,98.877,98.883,98.877,98.853,98.79,98.798,98.848,98.888,98.89,98.856,98.855,98.87,98.915,98.841,98.882,98.936,98.983,99.016,98.991,99.008,99.018,99.055,99.028,98.933,98.863,98.814,98.822,98.859,98.836,98.876,98.882,98.895,98.877,98.893,98.908,98.883,98.833,98.846,98.825,98.796,98.788,98.752,98.746,98.759,98.747,98.697,98.741,98.79,98.784,98.818,98.832,98.835,98.836,98.841,98.821,98.818,98.879,98.826,98.755,98.7,98.745,98.708,98.712,98.675,98.709,98.72,98.751,98.827,98.898,98.919,98.856,98.832,98.85,98.828,98.836,98.83,98.83,98.835,98.876,98.897,98.955,98.925,98.898,98.875,98.857,98.882,98.885,98.859,98.815,98.793,98.76,98.764,98.766,98.785,98.769,98.865,98.863,98.802,98.797,98.8,98.8,98.792,98.791,98.801,98.794,98.744,98.727,98.712,98.723,98.718,98.689,98.722,98.776,98.829,98.83,98.824,98.852,98.91,98.948,98.936,98.91,98.936,98.822
2019-04-12,102.166,102.697,102.854,102.994,103.17,103.247,102.959,103.136,103.11,103.092,103.349,103.657,103.758,103.836,103.801,103.839,103.759,103.832,103.63,103.554,103.609,103.56,103.576,103.653,103.751,103.825,103.818,103.793,103.459,103.427,103.248,103.118,102.857,102.956,102.917,102.918,102.93,102.711,102.665,102.756,102.995,103.04,103.04,102.902,102.891,102.883,102.922,102.801,102.728,102.771,102.806,102.901,103.015,103.238,103.377,103.369,103.399,103.448,103.444,103.401,103.289,103.178,103.332,103.16,103.241,103.002,102.999,103.004,103.087,102.985,102.761,102.671,102.681,102.68,102.69,102.773,102.888,102.757,102.684,102.795,102.853,102.836,102.941,102.948,102.972,103.016,102.909,102.955,102.987,102.928,102.885,102.988,102.938,103.035,103.027,102.967,102.859,102.763,102.846,102.905,102.962,102.931,102.941,102.905,102.86,102.83,102.879,102.853,102.826,102.798,102.796,102.811,102.881,102.925,102.919,102.854,102.913,102.921,102.925,102.931,102.938,102.903,102.877,102.895,102.908,102.981,102.949,102.915,102.959,102.97,102.874,102.867,102.915,102.932,102.972,102.957,102.921,102.943,102.918,102.915,103.005,103.053,103.091,103.238,103.279,103.305,103.34,103.308,103.3,103.382,103.38,103.39,103.37,103.337,103.297,103.329,103.3,103.288,103.37,103.41,103.392,103.33,103.326,103.319,103.278,103.287,103.32,103.374,103.419,103.444,103.428,103.431,103.369,103.312,103.249,103.29,103.289,103.282,103.277,103.364,103.451,103.44,103.456,103.451,103.403,103.394,103.344,103.386,103.454,103.485,103.568,103.712,103.749,103.777,103.88,103.955,103.943,103.965,104.029,104.082,104.014,104.005,104.069,104.092,104.187,104.287,104.304,104.378,104.474,104.491,104.586,104.707,104.743,104.743,104.775,104.715,104.722,104.718,104.652,104.637,104.75,104.734,104.618,104.666,104.702,104.664,104.713,104.694,104.753,104.772,104.756,104.753,104.768,104.75,104.806,104.865,104.874,105.007,104.977,104.999,105.014,105.064,105.09,105.035,104.999,105.061,105.174,105.252,105.249,105.313,105.43,105.498,105.501,105.504,105.553,105.588,105.365,105.199,105.166,105.236,105.346,105.363,105.331,105.496,105.405,105.434,105.459,105.436,105.362,105.558,105.55,105.583,105.671,105.681,105.718,105.804,105.756,105.696,105.713,105.74,105.697,105.729,105.743,105.728,105.77,105.845,105.975,106.01,106.022,105.975,105.873,105.689,105.701,105.706,105.705,105.619,105.585,105.496,105.517,105.537,105.825,105.996,105.864,105.787,105.834,105.844,105.831,105.707,105.625,105.554,105.526,105.443,105.359,105.281,105.216,105.132,105.143,105.17,105.166,105.186,105.088,105.31,105.064,105.191,105.126,105.22,105.174,105.148,105.216,105.321,105.301,105.482,105.605,105.716,105.76,105.761,105.789,105.739,105.926,105.99,106.026,106.057,106.026,106.234,106.383,106.398,106.29,106.294,106.185,106.092,105.975,105.857,105.723,105.949,105.659,105.632,105.584,105.521,105.597,105.755,105.669,105.611,105.573,105.621,105.652,105.638,105.531,105.472,105.491,105.511,105.55,105.484,105.5,105.477,105.439,105.388,105.402,105.397,105.34,105.356,105.324,105.301,105.278,105.243,105.234,105.326,105.397,105.408,105.352,105.339
2019-04-15,104.457,104.347,103.901,103.954,103.708,103.466,103.347,103.406,103.442,103.641,103.562,103.417,102.998,102.838,102.885,102.819,102.895,102.834,102.863,102.932,102.989,103.019,102.931,102.767,103.021,103.127,103.07,103.354,103.61,103.498,103.425,103.63,103.751,103.705,103.684,103.655,103.659,103.518,103.776,103.641,103.549,103.6,103.5,103.471,103.358,103.417,103.589,103.576,103.341,103.337,103.363,103.275,103.316,103.415,103.344,103.29,103.302,103.282,103.18,103.139,103.027,102.752,102.728,102.733,102.771,102.709,102.697,102.776,102.654,102.659,102.62,102.516,102.565,102.468,102.437,102.427,102.486,102.454,102.401,102.424,102.555,102.563,102.571,102.552,102.621,102.595,102.551,102.597,102.554,102.652,102.646,102.526,102.407,102.331,102.337,102.256,102.228,102.234,102.288,102.347,102.457,102.542,102.55,102.486,102.491,102.489,102.414,102.251,102.149,102.025,102.048,102.087,102.014,102.076,102.125,102.01,102.072,101.979,102.066,102.097,102.155,102.302,102.323,102.277,102.284,102.297,102.249,102.269,102.359,102.338,102.394,102.557,102.511,102.391,102.445,102.44,102.509,102.515,102.519,102.31,102.299,102.252,102.331,102.321,102.311,102.259,102.344,102.347,102.353,102.308,102.206,102.169,102.138,102.143,102.165,102.234,102.313,102.256,102.29,102.322,102.249,102.286,102.188,102.166,102.208,102.198,102.17,102.211,102.13,102.137,102.209,102.198,102.221,102.207,102.161,102.164,102.094,102.083,102.055,102.042,102.088,102.079,102.037,102.002,102.005,102.075,102.127,102.135,102.053,102.088,102.133,102.165,102.164,102.134,102.071,102.061,102.137,102.14,102.112,102.157,102.195,102.145,102.128,102.076,102.105,102.09,102.159,102.203,102.173,102.179,102.243,102.242,102.223,102.314,102.338,102.284,102.293,102.277,102.267,102.21,102.172,102.165,102.121,102.114,102.091,102.067,102.067,102.071,102.034,102.067,102.062,102.203,102.157,102.21,102.255,102.293,102.253,102.265,102.292,102.373,102.447,102.399,102.352,102.351,102.312,102.306,102.315,102.349,102.399,102.418,102.388,102.409,102.458,102.444,102.407,102.411,102.436,102.419,102.389,102.405,102.432,102.476,102.429,102.458,102.443,102.429,102.399,102.35,102.347,102.39,102.495,102.487,102.506,102.492,102.565,102.507,102.449,102.448,102.399,102.423,102.431,102.414,102.422,102.428,102.463,102.455,102.48,102.497,102.524,102.456,102.459,102.445,102.328,102.313,102.312,102.255,102.194,102.197,102.196,102.209,102.284,102.189,102.064,102.069,102.009,101.972,101.89,101.856,101.825,101.806,101.7,101.627,101.516,101.499,101.496,101.485,101.52,101.539,101.522,101.518,101.469,101.577,101.621,101.68,101.704,101.674,101.698,101.737,101.778,101.714,101.787,101.725,101.703,101.751,101.756,101.744,101.795,101.758,101.734,101.728,101.729,101.733,101.714,101.602,101.602,101.676,101.718,101.679,101.675,101.65,101.695,101.654,101.68,101.669,101.657,101.687,101.689,101.687,101.674,101.649,101.699,101.703,101.691,101.725,101.754,101.742,101.735,101.747,101.782,101.797,101.779,101.802,101.811,101.733,101.707,101.636,101.708,101.768,101.837,101.926,101.957,101.907,101.92,101.955,101.946,101.945,101.922,101.936,101.931,102.032
2019-04-16,101.886,101.945,101.886,101.888,101.912,101.844,101.686,101.53,101.496,101.451,101.482,101.29,101.293,101.283,101.418,101.517,101.656,101.713,101.519,101.436,101.237,101.102,101.101,101.215,101.337,101.335,101.35,101.242,101.282,101.288,101.369,101.379,101.423,101.472,101.456,101.441,101.423,101.39,101.406,101.46,101.472,101.493,101.636,101.704,101.653,101.655,101.608,101.527,101.505,101.545,101.623,101.656,101.689,101.715,101.693,101.726,101.689,101.751,101.904,102.039,102.099,102.043,101.95,101.936,101.925,101.914,101.984,102.008,102.013,101.994,102.008,102.03,102.023,102.021,101.976,101.878,101.912,101.923,101.885,101.874,101.819,101.825,101.87,101.879,101.9,101.846,101.87,101.807,101.775,101.632,101.639,101.583,101.557,101.521,101.465,101.339,101.413,101.357,101.38,101.402,101.5,101.673,101.641,101.695,101.773,101.859,101.882,101.679,101.606,101.567,101.495,101.55,101.595,101.601,101.555,101.481,101.549,101.557,101.557,101.581,101.579,101.521,101.535,101.581,101.583,101.598,101.626,101.627,101.576,101.545,101.585,101.586,101.601,101.632,101.655,101.639,101.683,101.681,101.704,101.801,101.833,101.884,101.915,101.941,101.947,101.96,102.043,102.043,102.048,102.007,102.035,102.046,102.019,102.042,102.11,102.121,102.162,102.154,102.141,102.125,102.086,102.097,102.102,102.055,102.068,102.114,102.153,102.181,102.165,102.189,102.129,102.133,102.123,102.07,101.933,101.947,101.987,101.983,101.959,101.991,102.017,102.068,102.102,102.127,102.155,102.188,102.187,102.174,102.149,102.065,102.022,102.013,102.042,102.048,102.064,102.1,102.132,102.149,102.132,102.127,102.101,102.07,102.073,101.978,101.987,102.023,102.035,102.072,102.017,101.989,102.02,102.01,102.03,101.992,102.035,102.072,102.087,102.071,102.09,102.039,102.049,102.049,102.031,102.005,101.981,101.998,101.996,102.027,102.008,102.025,102.06,102.075,102.045,102.019,102.025,102.007,102.005,101.959,101.931,101.971,102.003,102.017,102.017,101.956,101.953,101.937,101.914,101.891,101.914,101.93,101.949,101.962,101.919,101.892,101.928,101.895,101.891,101.953,101.985,102.043,102.038,102.049,102.038,102.044,101.977,101.93,101.917,101.93,101.914,101.922,101.914,101.882,101.911,101.937,101.886,101.944,101.998,102.012,102.016,102.085,102.089,102.143,102.153,102.163,102.156,102.212,102.226,102.313,102.346,102.452,102.456,102.493,102.477,102.581,102.634,102.621,102.684,102.745,102.776,102.721,102.755,102.678,102.693,102.729,102.773,102.714,102.647,102.647,102.606,102.628,102.692,102.704,102.663,102.593,102.606,102.598,102.616,102.597,102.523,102.534,102.554,102.56,102.54,102.528,102.582,102.593,102.551,102.544,102.531,102.491,102.491,102.534,102.514,102.501,102.449,102.425,102.463,102.463,102.461,102.515,102.524,102.495,102.483,102.478,102.502,102.505,102.486,102.454,102.421,102.376,102.377,102.363,102.346,102.412,102.438,102.441,102.43,102.425,102.452,102.532,102.52,102.555,102.624,102.584,102.496,102.42,102.443,102.486,102.392,102.334,102.301,102.345,102.33,102.37,102.3,102.321,102.35,102.303,102.355,102.297,102.289,102.271,102.293,102.341,102.362,102.344,102.366,102.349,102.362,102.345
2019-04-17,103.279,103.456,103.612,103.705,103.653,103.568,103.527,103.493,103.537,103.469,103.623,103.54,103.704,103.696,103.925,103.914,103.909,103.802,103.757,103.709,103.724,103.828,103.696,103.624,103.663,103.798,103.887,103.853,103.943,-1.0,104.041,103.986,103.993,104.193,104.365,104.334,104.243,104.259,104.043,103.863,103.803,103.614,103.692,103.718,103.832,103.708,103.777,103.641,103.566,103.458,103.549,103.658,103.694,103.68,103.737,103.838,103.791,103.789,103.733,103.81,103.785,103.933,103.884,103.89,103.895,103.968,103.987,103.82,103.882,103.902,103.877,103.791,103.681,103.643,103.591,103.52,103.585,103.621,103.598,103.574,103.526,103.516,103.468,103.478,103.481,103.529,103.491,103.439,103.415,103.268,103.172,103.138,103.144,103.189,103.21,103.338,103.454,103.503,103.539,103.553,103.499,103.516,103.49,103.422,103.334,103.371,103.439,103.431,103.326,103.309,103.38,103.367,103.365,103.481,103.455,103.416,103.423,103.411,103.403,103.402,103.275,103.272,103.205,103.204,103.116,103.192,103.276,103.292,103.235,103.181,103.195,103.177,103.156,103.197,103.182,103.147,103.114,103.097,103.094,103.153,103.172,103.007,103.009,103.024,103.041,103.057,102.966,102.917,102.857,102.886,102.852,102.865,102.743,102.712,102.666,102.627,102.597,102.791,102.802,102.78,102.737,102.725,102.62,102.662,102.662,102.596,102.579,102.63,102.781,102.744,102.753,102.695,102.587,102.629,102.56,102.592,102.654,102.636,102.688,102.652,102.709,102.7,102.704,102.674,102.658,102.631,102.635,102.633,102.533,102.47,102.372,102.302,102.279,102.341,102.376,102.478,102.513,102.451,102.422,102.495,102.556,102.532,102.528,102.546,102.498,102.542,102.574,102.511,102.453,102.485,102.451,102.45,102.407,102.388,102.42,102.48,102.481,102.4,102.396,102.442,102.466,102.44,102.391,102.388,102.403,102.445,102.475,102.516,102.59,102.636,102.66,102.611,102.669,102.706,102.67,102.672,102.703,102.71,102.814,102.851,102.813,102.832,102.775,102.776,102.822,102.808,102.819,102.787,102.767,102.794,102.802,102.853,102.838,102.788,102.782,102.736,102.686,102.638,102.612,102.581,102.491,102.453,102.461,102.49,102.516,102.554,102.566,102.59,102.574,102.564,102.581,102.552,102.511,102.481,102.5,102.532,102.524,102.57,102.554,102.539,102.455,102.424,102.347,102.329,102.285,102.28,102.335,102.29,102.324,102.322,102.269,102.225,102.223,102.168,102.104,102.021,102.036,102.109,102.075,102.003,102.032,102.036,102.048,102.056,101.978,101.962,101.856,101.823,101.823,101.798,101.784,101.722,101.769,101.777,101.769,101.801,101.841,101.783,101.775,101.755,101.78,101.82,101.825,101.83,101.782,101.739,101.731,101.702,101.675,101.65,101.694,101.689,101.734,101.77,101.829,101.749,101.763,101.784,101.716,101.692,101.596,101.571,101.57,101.562,101.621,101.573,101.507,101.461,101.508,101.573,101.583,101.576,101.632,101.663,101.6,101.575,101.551,101.533,101.621,101.73,101.728,101.677,101.669,101.64,101.667,101.688,101.662,101.74,101.715,101.785,101.861,101.881,101.88,101.852,101.86,101.941,101.901,101.859,101.918,101.983,101.999,101.983,101.921,101.852,101.86,101.83,101.792,101.853,101.833,101.819
2019-04-18,101.95,102.033,102.225,102.267,101.985,101.956,101.712,101.582,101.786,101.797,101.803,101.913,101.967,102.102,102.168,102.103,102.007,102.028,102.107,102.139,102.23,102.206,102.229,102.223,102.072,102.046,102.113,102.185,102.276,102.336,102.273,102.216,102.185,102.136,102.141,102.244,102.226,102.27,102.367,102.376,102.418,102.416,102.407,102.417,102.482,102.493,102.509,102.51,102.522,102.481,102.488,102.43,102.457,102.51,102.479,102.507,102.502,102.548,102.646,102.636,102.674,102.657,102.707,102.703,102.697,102.698,102.726,102.699,102.747,102.797,102.715,102.682,102.708,102.703,102.741,102.749,102.87,102.908,102.92,102.973,102.924,102.901,102.954,102.913,102.889,102.949,102.967,103.006,103.067,103.085,103.111,103.176,103.189,103.183,103.119,103.026,103.085,103.056,103.124,103.219,103.258,103.201,103.252,103.157,103.052,103.067,102.961,102.989,103.042,103.106,103.027,103.079,103.125,103.128,103.118,103.18,103.221,103.245,103.243,103.348,103.467,103.517,103.609,103.631,103.625,103.605,103.617,103.663,103.735,103.704,103.456,103.743,103.714,103.616,103.691,103.602,103.582,103.633,103.652,103.618,103.595,103.583,103.577,103.514,103.521,103.514,103.641,103.748,103.719,103.733,103.759,103.912,103.907,104.016,104.079,104.029,104.078,104.089,104.041,103.927,103.905,103.853,103.796,103.893,103.909,103.86,103.788,103.799,103.746,103.816,103.836,103.79,103.826,103.797,103.784,103.803,103.832,103.811,103.834,103.823,103.775,103.804,103.776,103.781,103.839,103.796,103.742,103.737,103.687,103.706,103.724,103.698,103.681,103.738,103.768,103.759,103.836,103.911,103.93,103.962,103.948,103.964,104.002,104.052,104.103,104.031,103.998,104.005,103.985,104.039,104.064,104.075,104.158,104.162,104.095,104.108,104.188,104.156,104.046,104.097,104.178,104.172,104.2,104.244,104.226,104.199,104.171,104.164,104.195,104.21,104.202,104.177,104.131,104.149,104.212,104.207,104.202,104.153,104.145,104.137,104.155,104.126,104.132,104.206,104.174,104.169,104.219,104.229,104.205,104.249,104.255,104.196,104.212,104.182,104.154,104.122,104.156,104.085,104.042,104.078,104.059,104.103,104.067,104.054,104.022,104.039,104.117,104.104,104.063,104.045,104.127,104.182,104.147,104.065,104.041,103.949,103.922,103.9,103.882,103.903,103.892,103.806,103.753,103.699,103.665,103.699,103.756,103.722,103.686,103.791,103.748,103.744,103.749,103.785,103.811,103.783,103.739,103.751,103.797,103.837,103.871,103.838,103.868,103.862,103.873,103.955,103.944,103.904,103.907,103.924,103.916,103.893,103.875,103.938,103.947,103.944,103.979,103.938,103.911,103.918,103.853,103.775,103.726,103.656,103.672,103.681,103.665,103.69,103.702,103.72,103.687,103.647,103.581,103.491,103.462,103.397,103.355,103.386,103.51,103.654,103.682,103.688,103.775,103.78,103.82,103.868,103.836,103.921,103.873,103.843,103.864,104.007,104.035,104.05,104.028,104.128,104.192,104.09,104.085,104.165,104.106,104.079,104.079,104.052,104.106,104.145,104.117,104.031,104.076,104.096,104.119,104.089,104.091,104.12,104.212,104.194,104.157,104.205,104.264,104.225,104.22,104.116,104.082,104.061,104.027,103.975,103.974,103.938,103.897,103.869
2019-04-22,105.276,105.647,105.315,105.608,105.72,105.692,105.672,105.678,105.733,105.84,105.72,105.652,105.635,105.401,105.363,105.353,105.442,105.453,105.244,105.004,104.929,104.779,104.756,104.768,104.88,104.906,104.964,104.901,104.889,104.817,104.903,105.006,104.998,104.953,105.011,105.03,105.18,105.246,105.268,105.241,105.254,105.316,105.162,105.13,105.123,105.101,105.034,105.095,105.108,105.163,105.26,105.315,105.407,105.376,105.337,105.341,105.474,105.648,105.771,105.795,105.811,105.795,105.716,105.707,105.46,105.37,105.425,105.426,105.459,105.357,105.258,105.227,105.261,105.34,105.299,105.336,105.352,105.421,105.477,105.494,105.629,105.668,105.775,105.852,105.773,105.755,105.787,105.812,105.724,105.74,105.707,105.66,105.541,105.461,105.374,105.357,105.323,105.406,105.554,105.559,105.624,105.695,105.762,105.717,105.707,105.708,105.674,105.624,105.601,105.629,105.711,105.645,105.633,105.706,105.698,105.701,105.738,105.665,105.672,105.745,105.793,105.863,105.811,105.75,105.798,105.876,105.876,105.916,105.885,105.87,106.005,106.073,106.027,106.052,106.091,106.069,106.054,106.095,106.042,106.027,106.065,106.049,106.085,106.068,106.094,106.037,106.089,106.133,106.149,106.295,106.387,106.386,106.396,106.399,106.425,106.445,106.444,106.492,106.59,106.632,106.69,106.697,106.67,106.672,106.727,106.805,106.833,106.815,106.852,106.832,106.797,106.701,106.644,106.624,106.725,106.758,106.713,106.671,106.762,106.784,106.825,106.857,106.865,106.904,106.94,106.905,106.918,106.926,106.993,107.007,106.947,106.873,106.923,106.978,107.037,107.026,107.004,107.075,107.094,107.095,107.126,107.089,107.012,107.006,106.998,106.953,106.849,106.893,106.935,106.921,106.867,106.907,107.0,107.12,107.13,107.082,107.133,107.104,107.102,107.226,107.125,107.086,107.031,106.996,107.019,107.024,107.075,107.109,107.136,107.057,106.957,106.951,107.015,107.025,107.017,107.038,107.08,107.111,107.102,107.097,107.106,107.049,107.064,107.074,107.063,107.016,107.001,107.07,107.129,107.156,107.16,107.186,107.195,107.21,107.27,107.254,107.237,107.225,107.224,107.219,107.277,107.222,107.211,107.217,107.266,107.233,107.189,107.113,107.055,107.01,107.09,107.03,106.969,106.977,106.999,107.011,106.952,106.928,106.921,106.93,106.882,106.888,106.827,106.839,106.842,106.821,106.79,106.799,106.796,106.768,106.731,106.692,106.65,106.64,106.599,106.601,106.605,106.584,106.615,106.655,106.658,106.653,106.656,106.65,106.603,106.523,106.466,106.456,106.39,106.263,106.273,106.331,106.418,106.515,106.549,106.554,106.61,106.565,106.622,106.589,106.558,106.625,106.626,106.673,106.736,106.743,106.754,106.704,106.708,106.744,106.741,106.753,106.779,106.779,106.748,106.678,106.719,106.75,106.746,106.725,106.699,106.638,106.602,106.613,106.625,106.618,106.64,106.634,106.652,106.687,106.653,106.645,106.696,106.719,106.723,106.705,106.712,106.701,106.72,106.743,106.785,106.802,106.84,106.849,106.877,106.877,106.891,106.851,106.829,106.857,106.891,106.869,106.888,106.895,106.871,106.852,106.889,106.881,106.903,106.918,106.958,106.974,106.963,106.99,107.017,106.991,106.885,106.801,106.775,106.981
2019-04-23,106.968,106.672,106.788,107.138,107.122,107.217,107.463,107.254,107.238,107.013,106.83,106.828,106.721,106.81,106.858,106.932,106.983,107.004,106.979,106.897,106.687,106.505,106.449,106.289,106.153,106.195,105.999,105.84,106.071,106.15,106.059,106.161,106.18,106.128,106.094,106.191,106.153,106.043,106.059,105.995,105.927,106.018,106.019,105.919,105.926,105.79,105.73,105.706,105.613,105.466,105.468,105.506,105.723,105.748,105.907,106.019,105.996,106.17,106.273,106.132,106.109,106.18,106.277,106.318,106.376,106.308,106.335,106.34,106.392,106.443,106.469,106.551,106.592,106.594,106.61,106.63,106.635,106.604,106.603,106.545,106.611,106.589,106.533,106.673,106.764,106.733,106.87,106.83,106.851,106.846,106.904,107.015,107.023,107.071,107.148,107.191,107.174,107.013,107.032,107.062,107.146,107.196,107.2,107.242,107.239,107.347,107.189,107.222,107.219,107.248,107.24,107.156,106.989,106.907,106.91,107.011,106.878,106.846,106.812,106.819,106.809,106.874,106.845,106.665,106.601,106.649,106.665,106.605,106.655,106.745,106.751,106.691,106.667,106.635,106.691,106.714,106.706,106.72,106.653,106.584,106.61,106.787,106.89,106.945,106.979,107.094,107.037,106.986,107.028,107.08,107.097,107.094,107.064,107.14,107.087,107.208,107.243,107.325,107.385,107.334,107.359,107.348,107.381,107.419,107.524,107.523,107.5,107.482,107.342,107.358,107.36,107.283,107.352,107.341,107.347,107.401,107.465,107.54,107.479,107.438,107.483,107.424,107.382,107.376,107.337,107.298,107.302,107.432,107.582,107.6,107.555,107.619,107.489,107.452,107.493,107.563,107.641,107.698,107.52,107.552,107.631,107.673,107.754,107.744,107.695,107.614,107.696,107.789,107.755,107.701,107.654,107.599,107.628,107.695,107.692,107.634,107.627,107.636,107.575,107.542,107.534,107.496,107.54,107.544,107.569,107.582,107.553,107.584,107.6,107.603,107.611,107.593,107.555,107.51,107.374,107.342,107.209,107.313,107.349,107.347,107.393,107.307,107.268,107.272,107.328,107.359,107.378,107.406,107.412,107.412,107.404,107.387,107.393,107.366,107.404,107.391,107.393,107.404,107.406,107.445,107.478,107.502,107.504,107.524,107.511,107.541,107.508,107.546,107.53,107.533,107.552,107.542,107.55,107.588,107.605,107.662,107.693,107.706,107.711,107.686,107.793,107.799,107.78,107.847,107.802,107.796,107.731,107.802,107.846,107.82,107.827,107.81,107.764,107.71,107.435,107.492,107.447,107.436,107.515,107.508,107.43,107.34,107.321,107.309,107.303,107.29,107.244,107.258,107.244,107.254,107.238,107.237,107.204,107.238,107.257,107.266,107.258,107.258,107.21,107.193,107.155,107.11,107.086,107.064,107.068,107.038,107.048,107.13,107.145,107.105,107.085,106.918,106.831,106.797,106.798,106.819,106.803,106.816,106.843,106.757,106.787,106.892,106.85,106.844,106.888,106.993,106.956,106.954,106.936,106.868,106.873,106.872,106.882,106.946,106.959,106.935,106.961,106.947,106.914,106.896,106.942,106.943,106.957,106.939,106.957,106.923,106.936,106.994,106.978,106.974,106.975,106.938,106.947,106.942,106.942,106.883,106.803,106.755,106.787,106.856,106.873,106.924,106.873,106.885,106.874,106.863,106.853,106.844,106.798,106.706
2019-04-24,107.35,107.172,106.993,107.129,107.265,107.126,107.068,107.023,106.537,106.486,106.205,106.173,106.244,106.246,106.046,105.915,105.891,105.867,106.017,106.0,105.924,105.9,106.167,106.172,106.128,106.117,106.05,105.897,105.985,105.894,105.816,105.659,105.441,105.371,105.308,105.099,105.079,104.989,105.066,105.08,105.052,105.015,104.861,104.99,105.111,105.22,105.305,105.434,105.395,105.384,105.601,105.676,105.737,105.725,105.756,105.747,105.799,105.834,105.866,105.892,105.925,105.884,105.845,105.863,105.912,105.981,105.982,105.969,105.984,105.951,105.827,105.687,105.552,105.416,105.534,105.607,105.656,105.768,105.854,105.772,105.698,105.579,105.517,105.503,105.503,105.51,105.595,105.509,105.513,105.503,105.508,105.51,105.507,105.52,105.522,105.522,105.508,105.503,105.498,105.502,105.526,105.541,105.536,105.542,105.533,105.503,105.517,105.5,105.503,105.537,105.502,105.502,105.509,105.507,105.536,105.504,105.519,105.549,105.558,105.638,105.726,105.645,105.576,105.521,105.611,105.656,105.714,105.652,105.583,105.579,105.531,105.539,105.593,105.684,105.733,105.733,105.653,105.574,105.539,105.508,105.597,105.558,105.537,105.603,105.574,105.608,105.608,105.628,105.611,105.618,105.63,105.672,105.649,105.587,105.573,105.526,105.57,105.57,105.595,105.59,105.555,105.522,105.531,105.564,105.563,105.572,105.578,105.552,105.538,105.523,105.549,105.537,105.494,105.59,105.661,105.672,105.636,105.606,105.624,105.546,105.512,105.56,105.528,105.564,105.512,105.501,105.466,105.528,105.507,105.498,105.524,105.502,105.499,105.477,105.457,105.504,105.516,105.487,105.486,105.511,105.525,105.506,105.513,105.528,105.577,105.555,105.579,105.55,105.569,105.725,105.811,105.714,105.659,105.632,105.589,105.566,105.519,105.518,105.507,105.518,105.452,105.453,105.452,105.453,105.45,105.466,105.504,105.472,105.486,105.483,105.472,105.513,105.514,105.506,105.507,105.492,105.486,105.507,105.451,105.44,105.316,105.198,105.214,105.234,105.237,105.175,105.121,105.082,105.064,105.024,105.01,105.046,105.032,105.051,105.046,105.006,105.047,105.107,105.094,105.106,105.067,105.01,105.02,105.01,105.007,105.002,104.987,105.024,105.034,105.011,105.021,105.05,105.101,105.144,105.125,105.212,105.221,105.222,105.246,105.294,105.223,105.288,105.26,105.177,105.148,105.176,105.257,105.298,105.271,105.329,105.276,105.172,105.212,105.221,105.236,105.221,105.227,105.227,105.23,105.215,105.231,105.217,105.216,105.193,105.182,105.13,105.083,105.013,105.053,105.012,105.015,105.003,104.957,104.955,104.946,104.964,105.048,105.087,105.048,105.062,105.056,105.094,105.128,105.12,105.143,105.143,105.114,105.104,105.06,105.034,105.082,105.072,105.038,105.006,104.984,104.967,104.946,104.964,104.917,104.863,104.84,104.772,104.751,104.755,104.738,104.722,104.74,104.757,104.745,104.744,104.724,104.741,104.741,104.74,104.753,104.737,104.723,104.741,104.754,104.735,104.776,104.761,104.711,104.67,104.625,104.618,104.598,104.558,104.538,104.475,104.425,104.397,104.42,104.485,104.545,104.541,104.521,104.502,104.412,104.436,104.382,104.357,104.259,104.216,104.25,104.251,104.102,104.041,104.003,103.891
2019-04-25,103.968,103.754,103.875,103.77,103.607,103.683,103.786,103.868,103.977,103.904,103.712,103.65,103.662,103.779,103.877,103.798,103.762,103.734,103.75,103.733,103.806,103.979,103.963,103.897,103.84,103.774,103.858,103.883,103.82,103.835,103.761,103.707,103.598,103.559,103.695,103.586,103.522,103.628,103.495,103.387,103.361,103.371,103.367,103.352,103.233,103.152,103.118,103.154,103.101,103.144,103.181,103.281,103.323,103.459,103.484,103.599,103.619,103.607,103.559,103.58,103.536,103.323,103.328,103.244,103.184,103.239,103.449,103.454,103.51,103.549,103.51,103.441,103.37,103.405,103.413,103.478,103.512,103.544,103.588,103.68,103.692,103.71,103.695,103.699,103.711,103.495,103.415,103.397,103.359,103.366,103.282,103.256,103.302,103.476,103.712,103.743,103.725,103.774,103.755,103.832,103.723,103.82,103.943,103.954,103.847,103.748,103.626,103.637,103.679,103.801,103.802,103.992,103.983,104.001,103.978,104.0,103.92,103.887,103.913,103.909,103.845,103.722,103.634,103.706,103.714,103.807,103.865,103.964,103.975,103.998,104.001,103.945,103.932,103.868,103.877,103.868,103.939,103.926,103.959,103.915,103.907,103.97,103.926,103.917,103.988,103.987,103.979,104.027,104.047,104.031,104.006,104.034,104.078,103.974,103.959,103.975,103.942,103.879,103.846,103.859,103.933,103.875,103.869,103.854,103.854,103.857,103.9,103.818,103.828,103.826,103.773,103.775,103.796,103.796,103.778,103.794,103.788,103.738,103.739,103.63,103.631,103.634,103.677,103.636,103.648,103.652,103.683,103.686,103.682,103.686,103.726,103.724,103.746,103.7,103.661,103.706,103.668,103.688,103.706,103.675,103.626,103.563,103.579,103.586,103.594,103.603,103.647,103.637,103.636,103.644,103.656,103.677,103.666,103.65,103.649,103.606,103.563,103.613,103.619,103.591,103.596,103.64,103.662,103.662,103.652,103.608,103.542,103.501,103.541,103.591,103.582,103.578,103.547,103.564,103.579,103.588,103.561,103.552,103.618,103.649,103.618,103.607,103.654,103.62,103.635,103.681,103.68,103.662,103.663,103.667,103.656,103.606,103.62,103.619,103.568,103.54,103.604,103.598,103.503,103.499,103.451,103.414,103.388,103.353,103.317,103.316,103.343,103.309,103.28,103.246,103.212,103.197,103.162,103.215,103.23,103.215,103.205,103.141,103.086,103.093,103.072,103.018,102.982,103.026,103.041,102.992,102.98,102.98,103.002,103.076,102.911,102.841,102.862,102.854,102.874,102.859,102.813,102.794,102.821,102.862,102.942,102.942,103.02,103.029,103.036,102.98,102.919,102.893,102.906,102.748,102.665,102.689,102.73,102.706,102.666,102.712,102.708,102.808,102.855,102.853,102.903,102.898,102.888,102.846,102.834,102.885,102.898,102.877,102.845,102.84,102.844,102.839,102.817,102.807,102.795,102.757,102.712,102.733,102.721,102.716,102.67,102.633,102.626,102.613,102.579,102.461,102.419,102.326,102.402,102.44,102.464,102.528,102.546,102.612,102.583,102.648,102.714,102.857,102.896,102.98,103.014,102.881,102.883,102.911,102.826,102.789,102.76,102.768,102.816,102.789,102.819,102.781,102.757,102.752,102.806,102.86,102.828,102.801,102.662,102.585,102.555,102.552,102.572,102.588,102.595,102.552,102.343,102.232,102.131,102.087
2019-04-26,101.401,101.543,101.939,101.826,101.69,101.555,101.254,100.989,100.976,100.709,100.418,100.31,100.241,100.0,99.943,100.06,100.121,100.062,100.337,100.362,100.471,100.622,100.72,100.734,100.659,100.559,100.372,100.423,100.486,100.482,100.275,100.229,100.286,100.222,100.106,100.104,100.045,99.859,99.728,99.588,99.526,99.542,99.492,99.45,99.462,99.592,99.52,99.459,99.346,99.249,99.09,99.051,99.088,99.11,99.127,99.151,99.104,98.984,98.898,98.968,98.935,98.909,98.887,98.868,98.917,98.818,98.738,98.754,98.681,98.621,98.68,98.569,98.532,98.503,98.408,98.652,98.651,98.646,98.701,98.715,98.722,98.548,98.445,98.458,98.364,98.249,98.014,97.872,97.835,97.801,97.72,97.711,97.677,97.623,97.661,97.73,97.674,97.616,97.556,97.588,97.588,97.558,97.592,97.624,97.704,97.78,97.981,97.9,97.898,97.965,98.008,98.01,98.124,98.153,98.146,98.028,98.0,98.046,98.128,98.261,98.192,98.065,98.071,97.996,97.97,97.893,98.022,98.071,98.166,98.235,98.197,98.227,98.197,98.205,98.149,98.089,98.128,98.172,98.163,98.23,98.201,98.012,97.941,97.883,97.942,97.931,97.817,97.691,97.755,97.833,97.859,97.949,97.928,97.9,97.876,97.94,97.961,97.862,97.854,97.871,97.853,97.856,97.842,97.765,97.812,97.85,97.791,97.766,97.821,97.818,97.845,97.774,97.731,97.692,97.615,97.556,97.5,97.458,97.449,97.426,97.434,97.447,97.458,97.459,97.437,97.415,97.416,97.419,97.471,97.533,97.541,97.541,97.594,97.556,97.59,97.638,97.699,97.613,97.601,97.619,97.625,97.656,97.608,97.559,97.544,97.548,97.523,97.483,97.475,97.54,97.595,97.674,97.783,97.775,97.727,97.709,97.71,97.64,97.623,97.601,97.738,97.713,97.715,97.654,97.596,97.555,97.497,97.455,97.427,97.397,97.375,97.419,97.431,97.445,97.402,97.466,97.438,97.359,97.432,97.457,97.425,97.472,97.501,97.497,97.498,97.493,97.437,97.416,97.427,97.466,97.398,97.363,97.426,97.512,97.502,97.543,97.485,97.462,97.476,97.501,97.463,97.427,97.394,97.416,97.405,97.474,97.535,97.563,97.572,97.623,97.587,97.588,97.52,97.456,97.463,97.446,97.41,97.407,97.332,97.333,97.257,97.259,97.283,97.156,97.131,97.28,97.361,97.332,97.326,97.345,97.41,97.475,97.601,97.696,97.645,97.564,97.638,97.692,97.72,97.577,97.576,97.583,97.59,97.612,97.588,97.541,97.477,97.405,97.374,97.438,97.479,97.436,97.443,97.476,97.498,97.411,97.403,97.377,97.425,97.433,97.439,97.512,97.566,97.524,97.51,97.495,97.475,97.509,97.54,97.478,97.457,97.527,97.585,97.567,97.628,97.64,97.71,97.71,97.677,97.655,97.601,97.528,97.433,97.389,97.33,97.376,97.407,97.444,97.412,97.499,97.501,97.476,97.459,97.461,97.5,97.464,97.511,97.472,97.435,97.441,97.462,97.485,97.538,97.479,97.527,97.509,97.623,97.671,97.663,97.704,97.721,97.718,97.687,97.604,97.639,97.651,97.627,97.603,97.576,97.648,97.646,97.649,97.652,97.67,97.74,97.844,97.917,98.054,98.115,98.05
2019-04-29,97.986,97.986,98.113,98.115,98.373,98.207,98.07,97.912,97.595,97.628,97.759,97.929,97.917,98.05,97.932,97.905,97.99,98.047,98.058,97.997,97.884,97.83,97.674,97.599,97.539,97.524,97.514,97.392,97.356,97.241,97.312,97.53,97.729,97.718,97.777,97.801,97.84,97.762,97.554,97.481,97.432,97.435,97.412,97.33,97.231,97.067,96.889,97.1,97.097,97.174,97.145,97.07,97.106,97.088,97.007,97.014,96.958,96.889,96.753,96.782,96.915,97.035,97.085,97.119,97.073,97.116,97.134,97.078,97.071,97.024,96.994,96.987,97.017,96.974,96.999,97.027,97.004,96.971,96.973,97.088,97.085,97.033,97.017,96.938,96.903,96.966,96.925,96.913,96.846,96.987,96.846,96.909,96.924,96.933,96.97,96.93,96.879,96.91,96.94,96.942,96.933,96.946,96.954,96.941,96.804,96.822,96.871,96.843,96.895,96.878,96.887,96.937,96.999,97.032,97.007,97.012,97.135,97.239,97.252,97.219,97.391,97.525,97.456,97.608,97.691,97.664,97.682,97.514,97.607,97.651,97.529,97.443,97.416,97.387,97.329,97.33,97.317,97.368,97.369,97.391,97.307,97.38,97.401,97.364,97.361,97.332,97.308,97.307,97.36,97.477,97.49,97.44,97.51,97.58,97.636,97.618,97.62,97.597,97.638,97.707,97.755,97.744,97.673,97.593,97.618,97.634,97.617,97.606,97.636,97.609,97.564,97.594,97.618,97.63,97.61,97.562,97.528,97.551,97.549,97.575,97.596,97.582,97.481,97.458,97.466,97.489,97.514,97.53,97.579,97.517,97.595,97.59,97.653,97.705,97.644,97.621,97.63,97.73,97.825,97.856,97.819,97.717,97.701,97.711,97.661,97.653,97.565,97.597,97.604,97.633,97.611,97.647,97.636,97.632,97.519,97.526,97.536,97.56,97.61,97.63,97.671,97.682,97.631,97.598,97.629,97.667,97.68,97.609,97.609,97.59,97.569,97.617,97.643,97.653,97.63,97.601,97.589,97.588,97.541,97.576,97.58,97.556,97.58,97.596,97.575,97.579,97.546,97.505,97.48,97.508,97.492,97.466,97.513,97.553,97.565,97.58,97.56,97.563,97.616,97.672,97.683,97.675,97.665,97.659,97.685,97.678,97.628,97.633,97.626,97.656,97.638,97.637,97.675,97.672,97.658,97.597,97.59,97.644,97.664,97.629,97.596,97.58,97.525,97.529,97.576,97.561,97.53,97.53,97.457,97.438,97.507,97.5,97.538,97.545,97.509,97.519,97.472,97.478,97.5,97.494,97.464,97.43,97.484,97.536,97.5,97.45,97.436,97.44,97.404,97.355,97.326,97.333,97.306,97.327,97.306,97.323,97.358,97.358,97.334,97.267,97.225,97.214,97.123,97.134,97.085,97.015,96.978,97.004,96.91,96.905,96.933,96.965,96.999,97.038,97.077,97.068,97.06,97.059,97.049,97.061,97.076,97.045,97.05,97.064,97.078,97.095,97.09,97.034,96.988,96.989,97.003,97.032,97.009,96.996,96.911,96.886,96.85,96.866,96.897,96.954,97.022,97.063,97.038,97.037,97.011,97.074,97.132,97.159,97.163,97.164,97.174,97.178,97.165,97.163,97.174,97.173,97.162,97.198,97.223,97.192,97.204,97.159,97.125,97.133,97.147,97.144,97.139,97.106,97.109,97.046
2019-04-30,98.026,98.248,98.153,97.874,97.768,97.542,97.584,97.434,97.406,97.37,97.293,97.216,97.136,97.052,97.033,96.914,96.968,96.965,96.936,96.964,96.861,96.94,96.97,96.9,96.891,96.75,96.643,96.652,96.687,96.586,96.566,96.547,96.568,96.533,96.479,96.419,96.382,96.371,96.323,96.333,96.367,96.383,96.273,96.228,96.146,96.064,95.893,95.725,95.541,95.447,95.32,95.282,95.285,95.589,95.686,95.773,95.897,95.922,95.885,95.888,95.934,95.941,96.054,96.188,96.222,96.208,96.228,96.175,96.159,96.136,96.174,96.204,96.272,96.083,95.974,95.949,95.859,95.677,95.526,95.534,95.687,95.77,95.823,95.923,95.908,96.034,96.056,96.039,96.092,96.15,96.156,96.09,96.088,95.997,95.756,95.719,95.652,95.562,95.392,95.413,95.48,95.504,95.388,95.334,95.369,95.555,95.598,95.45,95.448,95.547,95.636,95.635,95.7,95.792,95.824,95.912,95.925,95.875,95.864,95.906,95.9,96.021,95.938,95.888,95.947,95.923,95.914,95.974,96.111,96.154,96.132,96.024,95.873,95.842,95.814,95.687,95.526,95.493,95.618,95.829,95.856,95.877,95.909,95.795,95.76,95.833,95.729,95.799,95.857,95.784,95.69,95.737,95.67,95.704,95.68,95.683,95.644,95.603,95.66,95.654,95.658,95.696,95.651,95.616,95.614,95.553,95.556,95.54,95.524,95.523,95.543,95.535,95.51,95.487,95.451,95.483,95.526,95.48,95.487,95.552,95.67,95.651,95.607,95.616,95.577,95.576,95.502,95.502,95.524,95.505,95.46,95.491,95.468,95.466,95.464,95.49,95.494,95.438,95.436,95.445,95.442,95.422,95.396,95.357,95.421,95.443,95.44,95.478,95.494,95.522,95.586,95.593,95.547,95.617,95.597,95.635,95.668,95.697,95.704,95.698,95.668,95.708,95.655,95.645,95.611,95.562,95.559,95.549,95.555,95.479,95.477,95.447,95.46,95.425,95.382,95.351,95.332,95.317,95.287,95.31,95.361,95.35,95.352,95.391,95.407,95.422,95.343,95.316,95.297,95.297,95.229,95.171,95.171,95.227,95.168,95.183,95.181,95.199,95.183,95.18,95.172,95.168,95.19,95.188,95.15,95.156,95.097,95.062,95.078,95.099,95.097,95.058,94.998,95.05,95.025,95.029,95.04,95.015,95.054,95.064,95.045,95.068,95.102,95.091,95.125,95.134,95.068,95.028,95.052,95.047,95.028,95.066,95.106,95.102,95.056,95.101,95.15,95.208,95.216,95.246,95.247,95.216,95.145,95.183,95.204,95.218,95.176,95.207,95.24,95.217,95.198,95.18,95.05,95.034,95.153,95.187,95.213,95.26,95.308,95.371,95.487,95.526,95.554,95.566,95.589,95.55,95.502,95.523,95.543,95.588,95.576,95.585,95.6,95.633,95.66,95.637,95.638,95.641,95.646,95.653,95.668,95.685,95.763,95.77,95.755,95.721,95.755,95.785,95.736,95.773,95.814,95.902,95.897,95.886,95.84,95.783,95.779,95.812,95.885,95.938,95.831,95.816,95.828,95.88,95.91,95.936,95.971,95.919,95.921,95.939,95.902,95.92,95.963,95.916,95.929,95.959,95.89,95.842,95.846,95.864,95.854,95.835,95.907,95.914,95.92,95.948,95.937,95.912,95.942,96.018
2019-05-01,95.842,96.322,96.401,96.033,95.926,95.759,95.85,95.778,95.722,95.621,95.448,95.403,95.235,95.34,95.541,95.691,95.739,95.79,95.773,95.728,95.644,95.716,95.459,95.464,95.354,95.389,95.279,95.235,95.189,95.12,95.002,95.013,94.9,94.9,94.805,94.949,94.993,95.165,95.237,95.179,95.188,95.287,95.225,95.112,95.094,95.112,95.067,95.193,95.174,95.212,95.274,95.312,95.254,95.299,95.302,95.262,95.293,95.11,95.028,94.981,94.736,94.701,94.679,94.715,94.713,94.826,94.833,94.895,94.912,94.942,94.794,94.688,94.756,94.753,94.833,94.871,94.805,94.792,94.759,94.72,94.618,94.556,94.571,94.505,94.443,94.342,94.253,94.335,94.338,94.225,94.167,94.15,94.077,94.066,94.103,94.165,94.132,94.132,94.031,94.043,94.105,94.15,94.13,94.073,94.043,94.01,93.951,93.93,93.988,94.011,94.0,93.937,93.944,93.97,93.939,94.027,94.003,93.987,93.998,93.997,93.96,93.971,93.951,93.947,93.952,93.956,93.945,93.945,93.98,93.995,94.021,94.054,94.247,94.246,94.189,94.154,94.163,94.156,94.033,94.039,94.063,94.061,94.135,94.026,94.068,94.052,94.078,94.055,94.028,94.034,94.021,93.997,93.954,93.991,94.023,94.023,93.957,93.908,93.875,93.808,93.746,93.692,93.754,93.663,93.557,93.561,93.617,93.589,93.51,93.48,93.456,93.509,93.571,93.587,93.627,93.617,93.632,93.658,93.64,93.607,93.587,93.504,93.479,93.448,93.438,93.461,93.477,93.43,93.392,93.374,93.398,93.349,93.364,93.371,93.354,93.322,93.325,93.26,93.217,93.194,93.212,93.18,93.12,93.096,93.153,93.258,93.336,93.343,93.393,93.461,93.525,93.465,93.382,93.361,93.499,93.44,93.374,93.366,93.462,93.353,93.426,93.446,93.424,93.349,93.386,93.495,93.475,93.473,93.413,93.469,93.432,93.392,93.267,93.282,93.374,93.393,93.348,93.308,93.333,93.299,93.263,93.228,93.238,93.283,93.308,93.375,93.383,93.384,93.495,93.518,93.534,93.535,93.577,93.593,93.546,93.419,93.46,93.478,93.469,93.536,93.531,93.481,93.518,93.515,93.527,93.528,93.546,93.505,93.493,93.451,93.472,93.476,93.369,93.422,93.441,93.572,93.679,93.745,93.751,93.66,93.546,93.538,93.589,93.595,93.63,93.59,93.661,93.75,93.83,93.761,93.725,93.721,93.78,93.825,93.84,93.853,93.831,93.734,93.751,93.64,93.646,93.518,93.575,93.47,93.444,93.423,93.426,93.389,93.395,93.287,93.178,93.201,93.181,93.18,93.161,93.101,93.091,93.054,93.098,93.12,93.135,93.207,93.201,93.345,93.452,93.488,93.504,93.485,93.467,93.456,93.503,93.523,93.434,93.286,93.273,93.292,93.317,93.33,93.328,93.312,93.316,93.291,93.283,93.258,93.259,93.276,93.269,93.317,93.26,93.284,93.225,93.199,93.176,93.112,93.028,92.986,92.983,92.993,92.994,92.977,92.937,92.914,92.823,92.817,92.817,92.76,92.767,92.689,92.692,92.678,92.625,92.668,92.755,92.744,92.737,92.612,92.615,92.54,92.537,92.542,92.573,92.566,92.556,92.581,92.553,92.426,92.38,92.297,92.247,92.024
2019-05-02,91.125,91.349,91.077,91.025,91.476,91.645,91.87,91.73,91.687,91.992,91.921,91.712,91.619,91.608,91.93,91.946,91.805,91.995,91.918,91.863,91.899,91.87,91.744,91.661,91.672,91.667,91.668,91.431,91.532,91.567,91.623,91.765,91.711,91.643,91.656,91.691,91.649,91.456,91.478,91.409,91.322,91.313,91.263,91.416,91.495,91.441,91.358,91.357,91.394,91.324,91.347,91.576,91.631,91.665,91.668,91.608,91.68,91.595,91.471,91.398,91.317,91.364,91.444,91.437,91.355,91.29,91.234,91.13,90.923,90.901,90.966,90.917,90.963,90.938,90.843,90.813,90.767,90.736,90.678,90.704,90.656,90.687,90.691,90.725,90.658,90.772,90.737,90.658,90.599,90.599,90.507,90.486,90.489,90.474,90.538,90.5,90.489,90.481,90.418,90.448,90.498,90.379,90.488,90.378,90.373,90.383,90.311,90.231,90.159,90.093,89.994,89.922,89.91,89.921,89.96,89.949,89.993,89.959,89.847,89.791,89.894,89.939,90.004,89.955,89.912,89.962,90.014,89.93,89.886,89.861,89.879,89.865,89.736,89.63,89.517,89.485,89.537,89.632,89.698,89.924,89.83,89.774,89.615,89.616,89.53,89.464,89.426,89.36,89.373,89.349,89.537,89.563,89.572,89.59,89.587,89.768,89.81,89.787,89.725,89.719,89.807,89.807,89.802,89.891,89.668,89.628,89.553,89.552,89.575,89.565,89.507,89.543,89.561,89.636,89.599,89.568,89.734,89.733,89.674,89.795,89.85,89.948,90.003,89.869,89.817,89.817,89.775,89.821,89.841,89.853,89.792,89.77,89.805,89.846,89.805,89.787,89.81,89.802,89.813,89.82,89.769,89.681,89.579,89.559,89.677,89.677,89.665,89.619,89.628,89.722,89.724,89.614,89.578,89.497,89.42,89.478,89.495,89.429,89.469,89.471,89.544,89.548,89.591,89.593,89.599,89.627,89.75,89.774,89.76,89.833,89.869,89.977,89.961,89.959,89.977,89.982,89.959,89.928,89.856,89.887,89.932,89.963,89.892,89.872,89.888,89.898,89.862,89.813,89.852,89.839,89.822,89.778,89.736,89.741,89.826,89.917,89.857,89.791,89.748,89.714,89.708,89.752,89.72,89.731,89.68,89.679,89.747,89.753,89.714,89.612,89.623,89.619,89.562,89.53,89.537,89.582,89.614,89.576,89.641,89.681,89.675,89.571,89.589,89.627,89.723,89.646,89.651,89.743,89.73,89.737,89.669,89.691,89.766,89.91,89.925,89.921,89.901,89.724,89.565,89.584,89.677,89.635,89.678,89.61,89.684,89.597,89.617,89.707,89.746,89.699,89.741,89.71,89.734,89.794,89.835,89.79,89.739,89.672,89.639,89.589,89.54,89.675,89.788,89.791,89.724,89.737,89.777,89.796,89.748,89.712,89.742,89.732,89.784,89.788,89.765,89.785,89.733,89.685,89.675,89.635,89.634,89.655,89.623,89.642,89.602,89.559,89.692,89.704,89.732,89.778,89.728,89.703,89.781,89.757,89.813,89.806,89.798,89.761,89.74,89.789,89.804,89.759,89.7,89.635,89.625,89.579,89.594,89.661,89.688,89.762,89.653,89.579,89.687,89.746,89.782,89.757,89.68,89.736,89.797,89.768,89.732,89.69,89.64,89.576,89.596,89.518,89.497,89.532,89.453,89.271
2019-05-03,92.024,92.107,92.192,92.037,92.027,91.925,91.57,91.442,91.304,91.08,91.152,91.249,91.193,91.165,91.12,91.228,90.513,89.999,90.221,90.623,90.654,90.744,90.975,90.913,90.987,90.989,91.14,90.936,90.944,91.129,91.254,90.96,91.113,91.476,91.593,91.787,91.898,91.862,91.845,91.729,91.746,91.831,91.862,91.866,91.819,91.916,91.998,92.126,92.161,92.396,92.198,92.314,92.382,92.393,92.432,92.582,92.624,92.853,93.03,92.991,92.905,92.876,92.862,92.849,92.948,92.982,92.907,92.933,92.996,93.002,93.03,93.077,93.009,93.004,93.032,93.026,93.021,93.04,93.039,93.008,92.983,92.998,92.966,93.021,92.974,92.978,93.004,92.962,92.984,93.003,92.969,92.993,93.187,93.329,93.241,93.294,93.357,93.302,93.272,93.463,93.515,93.332,93.214,93.148,93.134,92.996,92.994,92.939,92.694,92.668,92.538,92.488,92.596,92.635,92.723,92.832,92.84,92.822,92.802,92.776,92.765,92.762,92.814,92.823,92.83,92.737,92.773,92.813,92.788,92.751,92.767,92.742,92.822,92.809,92.805,92.745,92.727,92.658,92.629,92.666,92.69,92.737,92.769,92.72,92.651,92.728,92.682,92.632,92.661,92.613,92.664,92.695,92.773,92.741,92.743,92.793,92.881,92.913,92.93,92.927,92.906,92.889,92.819,92.734,92.734,92.751,92.795,92.792,92.768,92.75,92.778,92.774,92.785,92.794,92.771,92.767,92.754,92.778,92.765,92.762,92.792,92.875,92.879,92.8,92.75,92.744,92.759,92.744,92.784,92.846,92.924,92.943,93.0,93.028,93.033,92.966,92.86,92.936,92.975,93.013,93.013,92.991,92.927,92.95,92.873,92.696,92.655,92.748,92.77,92.755,92.759,92.765,92.803,92.789,92.711,92.654,92.701,92.737,92.708,92.708,92.682,92.68,92.686,92.673,92.668,92.673,92.655,92.574,92.688,92.656,92.712,92.763,92.733,92.65,92.657,92.724,92.687,92.61,92.603,92.626,92.653,92.648,92.553,92.53,92.334,92.275,92.183,92.144,92.086,92.105,92.137,92.182,92.193,92.167,92.02,92.071,92.093,92.113,92.153,92.138,92.169,92.178,92.135,92.113,92.042,91.894,91.857,91.837,91.849,91.836,91.776,91.748,91.707,91.721,91.712,91.778,91.824,91.833,91.835,91.934,91.898,91.951,92.031,92.047,92.047,92.101,92.147,92.169,92.154,92.13,92.16,92.222,92.241,92.124,92.051,91.966,91.958,91.938,91.885,91.871,91.866,91.833,91.793,91.784,91.767,91.786,91.725,91.724,91.681,91.632,91.654,91.694,91.652,91.725,91.72,91.783,91.788,91.791,91.731,91.725,91.765,91.835,91.967,92.055,92.084,92.121,92.112,91.987,91.968,91.871,91.822,91.825,91.77,91.724,91.778,91.775,91.802,91.86,91.869,91.892,91.854,91.748,91.768,91.766,91.74,91.716,91.664,91.721,91.733,91.679,91.694,91.685,91.683,91.718,91.695,91.706,91.752,91.788,91.851,91.675,91.631,91.658,91.616,91.567,91.63,91.623,91.559,91.527,91.561,91.58,91.673,91.627,91.561,91.427,91.465,91.443,91.416,91.328,91.213,91.239,91.318,91.358,91.384,91.292,91.414,91.484,91.531,91.532,91.506,91.088
2019-05-06,89.888,90.026,90.504,90.489,90.289,90.378,90.206,90.014,89.991,90.105,90.083,90.048,90.039,89.859,90.006,89.939,90.025,90.109,90.106,90.042,89.951,90.011,89.968,90.187,90.353,90.549,90.583,90.668,90.763,90.72,90.796,90.709,90.625,90.591,90.606,90.732,90.887,90.993,91.26,91.302,91.269,91.316,91.401,91.361,91.619,91.506,91.524,91.41,91.455,91.497,91.373,91.399,91.37,91.218,91.139,91.2,91.264,91.292,91.218,91.122,90.949,90.894,90.875,90.766,90.726,90.712,90.716,90.777,90.912,90.898,90.962,91.008,90.992,90.831,90.835,90.807,90.807,90.714,90.614,90.5,90.427,90.634,90.577,90.619,90.633,90.645,90.75,90.823,90.934,90.927,90.893,90.891,90.817,90.772,90.672,90.671,90.547,90.515,90.537,90.449,90.529,90.49,90.475,90.58,90.694,90.767,90.913,91.058,90.995,90.991,91.125,91.051,90.979,90.911,90.901,90.913,90.949,90.936,91.003,90.979,91.038,90.959,90.887,90.768,90.704,90.792,90.844,91.015,91.063,91.114,91.106,91.09,91.097,91.032,90.963,91.045,91.179,91.125,91.102,91.025,90.966,90.882,90.828,90.913,90.861,90.779,90.725,90.606,90.549,90.549,90.55,90.556,90.473,90.472,90.521,90.548,90.556,90.609,90.626,90.678,90.659,90.659,90.688,90.695,90.689,90.742,90.769,90.814,90.782,90.828,90.914,90.972,90.933,90.98,90.98,90.998,90.963,90.946,90.887,90.884,90.825,90.681,90.624,90.627,90.575,90.591,90.617,90.593,90.543,90.605,90.62,90.662,90.737,90.702,90.696,90.697,90.677,90.698,90.666,90.655,90.626,90.627,90.632,90.716,90.705,90.725,90.727,90.763,90.789,90.745,90.671,90.667,90.647,90.683,90.677,90.754,90.786,90.783,90.722,90.598,90.649,90.605,90.639,90.672,90.657,90.727,90.79,90.836,90.862,90.836,90.868,90.855,90.845,90.861,90.874,90.912,90.899,90.918,90.928,90.888,90.905,90.919,90.903,90.861,90.86,90.897,90.893,90.913,90.893,90.897,90.935,90.907,90.954,91.099,91.167,91.2,91.25,91.254,91.258,91.308,91.333,91.394,91.38,91.372,91.364,91.377,91.32,91.311,91.247,91.245,91.2,91.15,91.153,91.201,91.202,91.178,91.219,91.24,91.25,91.283,91.249,91.195,91.28,91.242,91.214,91.203,91.227,91.156,91.15,91.141,91.085,91.145,91.147,91.123,91.127,91.147,91.188,91.243,91.204,91.228,91.247,91.302,91.276,91.213,91.191,91.19,91.209,91.197,91.194,91.234,91.324,91.32,91.359,91.416,91.406,91.417,91.43,91.43,91.511,91.584,91.645,91.656,91.618,91.601,91.588,91.63,91.645,91.649,91.633,91.592,91.622,91.678,91.722,91.768,91.787,91.781,91.809,91.796,91.756,91.682,91.643,91.618,91.624,91.582,91.573,91.502,91.524,91.565,91.605,91.604,91.653,91.68,91.67,91.666,91.72,91.833,91.81,91.804,91.807,91.78,91.683,91.642,91.583,91.497,91.496,91.558,91.502,91.507,91.529,91.417,91.407,91.301,91.245,91.252,91.259,91.23,91.154,91.164,91.188,91.227,91.333,91.379,91.505,91.469,91.346,91.308,91.344,91.337,91.356,91.331
2019-05-07,90.016,89.965,89.923,89.948,89.936,89.889,89.934,90.352,90.635,90.702,90.532,90.494,90.621,90.66,90.491,90.468,90.479,90.371,90.208,90.1,89.918,89.788,90.006,90.265,90.42,90.43,90.586,90.697,90.636,90.695,90.729,90.582,90.512,90.67,90.758,90.775,90.657,90.807,90.811,90.8,90.753,90.822,90.927,91.083,91.124,91.13,90.97,90.944,91.045,91.056,91.15,91.209,91.237,91.242,91.199,91.194,91.233,91.25,91.366,91.359,91.285,91.147,91.114,90.964,90.689,90.532,90.425,90.515,90.633,90.674,90.758,90.91,90.989,91.011,90.906,90.888,90.942,90.784,90.762,90.635,90.587,90.551,90.587,90.63,90.601,90.625,90.572,90.54,90.656,90.574,90.774,90.74,90.543,90.478,90.468,90.493,90.494,90.494,90.499,90.594,90.567,90.691,90.697,90.627,90.721,90.717,90.745,90.743,90.712,90.714,90.627,90.667,90.635,90.651,90.66,90.629,90.685,90.803,90.869,90.925,91.09,91.053,91.129,91.079,90.917,90.794,90.761,90.677,90.662,90.724,90.913,90.815,90.861,90.848,90.818,90.867,90.908,90.876,90.9,90.888,90.679,90.674,90.704,90.743,90.725,90.711,90.686,90.572,90.548,90.509,90.511,90.485,90.519,90.533,90.583,90.656,90.689,90.818,90.811,90.749,90.831,90.834,90.843,90.801,90.749,90.713,90.77,90.745,90.762,90.726,90.773,90.734,90.781,90.777,90.761,90.755,90.714,90.717,90.785,90.88,90.887,90.918,90.957,90.953,90.866,90.893,90.896,90.911,90.946,90.934,90.887,90.88,90.912,90.931,90.887,90.906,90.927,90.928,90.92,90.933,90.922,90.948,90.986,90.889,90.826,90.714,90.703,90.632,90.683,90.708,90.715,90.705,90.704,90.68,90.652,90.582,90.576,90.553,90.463,90.412,90.335,90.419,90.468,90.501,90.531,90.496,90.532,90.539,90.537,90.465,90.377,90.344,90.378,90.351,90.448,90.441,90.451,90.414,90.396,90.374,90.303,90.321,90.29,90.375,90.472,90.484,90.476,90.346,90.341,90.369,90.318,90.276,90.302,90.249,90.244,90.266,90.318,90.377,90.396,90.473,90.519,90.537,90.607,90.665,90.607,90.528,90.601,90.585,90.557,90.549,90.614,90.595,90.626,90.588,90.63,90.731,90.75,90.784,90.769,90.773,90.78,90.768,90.796,90.859,90.797,90.816,90.744,90.693,90.662,90.705,90.689,90.758,90.748,90.699,90.618,90.676,90.641,90.604,90.56,90.578,90.611,90.58,90.442,90.48,90.475,90.577,90.618,90.684,90.697,90.695,90.743,90.783,90.712,90.676,90.612,90.652,90.64,90.644,90.616,90.608,90.639,90.701,90.701,90.76,90.876,90.98,91.0,91.028,91.049,91.038,91.059,91.037,91.021,90.913,90.922,90.951,90.88,90.934,91.016,91.095,91.139,91.216,91.265,91.302,91.274,91.292,91.204,91.265,91.263,91.183,91.197,91.172,91.139,91.123,91.075,91.091,91.047,91.05,91.053,91.06,91.062,91.057,91.073,91.075,91.041,91.014,91.043,91.036,90.989,91.073,91.118,91.188,91.258,91.334,91.401,91.481,91.457,91.447,91.507,91.46,91.438,91.517,91.588,91.621,91.749,91.791,91.77,91.701,91.714,91.752
2019-05-08,91.658,91.833,91.981,92.086,92.312,92.421,92.594,92.826,92.783,92.639,92.759,92.806,92.858,92.75,92.792,93.006,93.258,93.366,93.526,93.424,93.223,93.319,93.564,93.683,93.514,93.273,93.179,93.099,93.141,93.256,93.448,93.471,93.418,93.226,93.402,93.431,93.464,93.583,93.599,93.652,93.58,93.435,93.503,93.462,93.406,93.503,93.458,93.416,93.364,93.333,93.461,93.481,93.489,93.591,93.723,93.677,93.653,93.594,93.584,93.4,93.68,93.677,93.426,93.406,93.406,93.43,93.428,93.464,93.569,93.495,93.604,93.56,93.584,93.616,93.657,93.652,93.755,93.765,93.802,93.804,93.822,93.767,93.778,93.698,93.616,93.657,93.577,93.552,93.607,93.856,94.017,94.098,94.108,94.237,94.32,94.464,94.524,94.566,94.592,94.498,94.394,94.296,94.211,94.327,94.498,94.484,94.494,94.418,94.396,94.399,94.298,94.296,94.255,94.164,94.092,94.034,94.007,93.975,93.956,93.987,93.973,94.02,94.011,93.93,93.9,93.976,93.99,93.907,93.826,93.783,93.74,93.744,93.769,93.739,93.763,93.826,93.893,93.875,93.903,93.981,93.967,93.918,93.944,93.961,93.969,93.991,94.037,94.142,94.108,94.027,94.007,93.969,93.871,93.777,93.79,93.882,93.925,93.886,93.863,93.797,93.734,93.716,93.748,93.729,93.698,93.736,93.755,93.788,93.803,93.74,93.684,93.74,93.767,93.837,93.808,93.822,93.834,93.869,93.87,93.885,93.762,93.721,93.703,93.7,93.656,93.618,93.676,93.704,93.627,93.561,93.572,93.574,93.527,93.514,93.543,93.572,93.598,93.673,93.71,93.764,93.804,93.789,93.778,93.722,93.671,93.677,93.699,93.753,93.771,93.784,93.752,93.758,93.75,93.816,93.795,93.776,93.738,93.795,93.81,93.781,93.795,93.796,93.765,93.762,93.77,93.743,93.672,93.68,93.663,93.639,93.686,93.724,93.772,93.807,93.808,93.739,93.811,93.794,93.758,93.717,93.696,93.68,93.719,93.763,93.804,93.763,93.721,93.796,93.797,93.798,93.823,93.797,93.797,93.814,93.807,93.819,93.841,93.773,93.727,93.763,93.772,93.794,93.816,93.773,93.744,93.727,93.741,93.8,93.786,93.803,93.803,93.725,93.698,93.738,93.741,93.689,93.693,93.714,93.787,93.846,93.762,93.774,93.718,93.667,93.673,93.67,93.694,93.732,93.692,93.665,93.68,93.702,93.743,93.784,93.86,93.942,93.991,94.021,94.039,94.091,94.14,94.134,94.142,94.201,94.229,94.248,94.246,94.157,94.204,94.239,94.286,94.29,94.202,94.204,94.254,94.255,94.155,94.169,94.166,94.175,94.195,94.154,94.162,94.225,94.279,94.269,94.228,94.141,94.222,94.221,94.251,94.228,94.228,94.219,94.11,94.116,94.136,94.222,94.148,94.143,94.191,94.22,94.218,94.284,94.3,94.173,94.123,94.19,94.24,94.32,94.379,94.39,94.361,94.306,94.283,94.336,94.385,94.419,94.436,94.372,94.392,94.408,94.371,94.428,94.401,94.396,94.451,94.406,94.341,94.38,94.399,94.366,94.279,94.283,94.287,94.289,94.274,94.239,94.299,94.281,94.202,94.165,94.236,94.23,94.193,94.094,94.124,94.135,94.141,94.105
2019-05-09,92.613,92.537,92.849,92.862,92.842,92.84,92.795,92.745,93.014,93.216,93.214,93.259,93.136,92.906,92.696,92.613,92.567,92.575,92.585,92.555,92.424,92.191,92.216,92.332,92.371,92.371,92.464,92.421,92.538,92.773,92.797,92.734,92.686,92.634,92.831,92.842,92.789,92.949,92.93,92.996,92.898,92.941,92.891,92.88,92.884,92.879,92.794,92.716,92.641,92.569,92.489,92.678,92.658,92.758,92.751,92.759,92.744,92.826,92.847,93.04,93.084,93.06,93.073,93.081,92.972,92.976,92.964,92.913,92.749,92.749,92.786,92.79,93.057,93.16,93.254,93.256,93.308,93.411,93.456,93.408,93.376,93.457,93.394,93.416,93.412,93.392,93.401,93.423,93.414,93.355,93.439,93.526,93.482,93.489,93.594,93.561,93.576,93.475,93.592,93.599,93.724,93.781,93.709,93.789,93.885,93.806,93.628,93.604,93.554,93.607,93.549,93.481,93.478,93.322,93.311,93.367,93.27,93.129,93.168,93.176,93.306,93.248,93.374,93.434,93.481,93.472,93.517,93.509,93.532,93.629,93.746,93.671,93.532,93.654,93.753,93.763,93.706,93.728,93.785,93.83,93.854,93.852,93.729,93.703,93.812,93.842,93.868,93.816,93.768,93.832,93.908,93.906,93.908,93.821,93.841,93.84,93.836,93.917,93.977,93.976,93.945,93.964,93.968,93.986,93.99,93.912,93.958,94.055,94.137,94.168,94.112,94.003,94.029,94.043,94.066,94.169,94.287,94.196,94.291,94.332,94.36,94.419,94.523,94.535,94.555,94.579,94.683,94.74,94.669,94.781,94.805,94.9,94.667,94.619,94.715,94.72,94.682,94.642,94.56,94.6,94.554,94.531,94.642,94.712,94.718,94.736,94.783,94.8,94.771,94.871,94.978,95.022,95.067,95.044,95.01,95.015,94.893,94.828,94.791,94.785,94.778,94.732,94.665,94.766,94.79,94.772,94.663,94.579,94.556,94.521,94.49,94.516,94.536,94.567,94.532,94.576,94.614,94.589,94.613,94.634,94.654,94.681,94.68,94.653,94.661,94.671,94.688,94.661,94.591,94.622,94.653,94.638,94.675,94.698,94.668,94.611,94.589,94.567,94.609,94.732,94.739,94.697,94.728,94.668,94.625,94.663,94.662,94.73,94.716,94.706,94.774,94.803,94.693,94.554,94.591,94.688,94.778,94.779,94.67,94.766,94.802,94.807,94.764,94.783,94.797,94.796,94.764,94.763,94.728,94.701,94.707,94.752,94.7,94.706,94.734,94.65,94.571,94.483,94.453,94.482,94.435,94.462,94.547,94.549,94.453,94.435,94.425,94.37,94.435,94.431,94.437,94.47,94.474,94.457,94.408,94.346,94.337,94.332,94.289,94.275,94.283,94.347,94.353,94.37,94.354,94.373,94.305,94.247,94.219,94.158,94.167,94.107,94.119,94.154,94.185,94.17,94.132,94.092,93.98,93.903,93.876,93.948,93.979,94.025,93.984,94.019,94.04,94.023,94.003,94.025,94.066,94.097,94.099,94.132,94.174,94.146,94.147,94.149,94.155,94.212,94.254,94.289,94.354,94.36,94.388,94.356,94.305,94.289,94.398,94.367,94.366,94.282,94.26,94.271,94.326,94.304,94.343,94.318,94.327,94.276,94.297,94.343,94.344,94.312,94.338,94.354,94.358,94.319,94.323,94.281
2019-05-10,94.343,93.836,93.813,94.045,94.064,94.025,94.088,94.049,94.15,94.217,94.213,94.172,94.147,93.962,93.844,93.913,93.931,94.027,94.088,93.853,93.752,93.591,93.567,93.785,93.697,93.716,93.744,93.743,93.728,93.673,93.629,93.522,93.635,93.626,93.541,93.442,93.425,93.365,93.422,93.433,93.434,93.456,93.488,93.357,93.329,93.258,93.008,92.968,92.967,92.899,92.91,92.906,92.922,92.874,92.889,92.99,93.145,93.169,93.115,93.114,93.124,93.082,93.085,92.988,93.032,93.006,92.978,92.915,92.812,92.778,92.818,92.654,92.762,92.794,92.844,92.877,93.052,93.1,93.09,92.987,93.053,93.12,93.154,93.183,93.159,93.119,93.127,93.157,93.253,93.201,93.218,93.224,93.15,93.076,93.132,93.229,93.266,93.28,93.164,93.091,93.08,93.085,93.07,93.167,93.204,93.18,93.156,93.324,93.335,93.405,93.523,93.627,93.662,93.582,93.564,93.581,93.566,93.646,93.672,93.595,93.486,93.414,93.442,93.47,93.423,93.436,93.483,93.485,93.658,93.59,93.568,93.612,93.47,93.282,93.399,93.472,93.39,93.388,93.402,93.331,93.294,93.471,93.578,93.573,93.512,93.651,93.569,93.573,93.628,93.669,93.736,93.748,93.719,93.686,93.675,93.653,93.618,93.528,93.54,93.564,93.55,93.578,93.729,93.8,93.766,93.769,93.794,93.809,93.819,93.848,93.825,93.835,93.855,93.894,93.878,93.88,93.93,93.978,94.055,94.111,94.131,94.108,94.165,94.248,94.346,94.34,94.329,94.325,94.214,94.262,94.209,94.095,94.117,94.126,94.179,94.197,94.1,94.178,94.162,94.104,94.143,94.147,94.229,94.274,94.3,94.35,94.272,94.261,94.27,94.3,94.296,94.386,94.442,94.423,94.436,94.39,94.335,94.388,94.376,94.407,94.437,94.385,94.406,94.377,94.314,94.303,94.209,94.255,94.363,94.377,94.436,94.474,94.533,94.418,94.424,94.49,94.5,94.502,94.506,94.489,94.482,94.53,94.557,94.57,94.566,94.598,94.562,94.505,94.488,94.537,94.562,94.593,94.516,94.498,94.535,94.556,94.615,94.577,94.606,94.665,94.6,94.608,94.616,94.619,94.621,94.521,94.525,94.502,94.544,94.578,94.544,94.545,94.636,94.651,94.607,94.626,94.66,94.692,94.709,94.682,94.702,94.721,94.671,94.646,94.55,94.451,94.441,94.439,94.365,94.328,94.272,94.25,94.169,94.129,94.091,94.064,94.067,94.194,94.21,94.209,94.199,94.195,94.231,94.256,94.252,94.255,94.239,94.285,94.381,94.415,94.429,94.407,94.389,94.409,94.397,94.378,94.377,94.394,94.432,94.41,94.454,94.447,94.533,94.572,94.526,94.535,94.53,94.564,94.582,94.663,94.652,94.663,94.751,94.679,94.731,94.788,94.788,94.732,94.681,94.774,94.761,94.77,94.774,94.749,94.806,94.837,94.85,94.924,94.991,95.104,95.14,95.017,95.109,95.134,95.111,95.101,95.198,95.156,95.232,95.181,95.139,95.033,95.007,94.946,94.861,94.774,94.779,94.781,94.734,94.709,94.699,94.683,94.678,94.681,94.625,94.65,94.713,94.744,94.674,94.641,94.674,94.719,94.734,94.793,94.788,94.811,94.812,94.881,94.885,95.004
2019-05-13,93.966,94.324,94.043,94.035,94.28,94.478,94.549,94.526,94.525,94.576,94.532,94.614,94.724,94.594,94.53,94.536,94.568,94.65,94.865,94.762,94.483,94.5,94.482,94.424,94.333,94.272,94.372,94.289,94.31,94.328,94.329,94.203,94.115,94.049,94.14,94.087,93.986,94.005,93.988,93.843,93.679,93.627,93.673,93.746,93.739,93.763,93.898,94.055,94.237,94.174,94.016,93.931,93.921,94.012,94.064,94.153,94.067,94.1,94.168,94.234,94.226,94.28,94.334,94.315,94.357,94.495,94.596,94.606,94.543,94.754,94.903,94.991,95.177,95.262,95.214,95.177,95.204,95.12,95.006,94.82,94.785,94.876,94.852,94.801,94.693,94.737,94.71,94.678,94.702,94.841,94.965,94.787,94.643,94.604,94.446,94.496,94.482,94.641,94.679,94.539,94.457,94.463,94.478,94.435,94.326,94.216,94.196,94.003,94.04,94.068,94.14,94.169,94.135,94.187,94.147,94.077,94.013,93.937,93.913,93.984,94.103,93.992,94.013,93.948,94.011,93.987,93.945,93.853,93.811,93.791,93.773,93.774,93.816,93.851,93.849,93.917,93.922,93.871,93.818,93.855,93.864,93.677,93.725,93.617,93.579,93.603,93.632,93.716,93.739,93.736,93.772,93.802,93.856,93.787,93.781,93.805,93.812,93.788,93.718,93.672,93.741,93.773,93.655,93.742,93.639,93.574,93.612,93.674,93.759,93.797,93.787,93.812,93.824,93.831,93.765,93.847,93.893,93.847,93.847,93.826,93.695,93.624,93.69,93.817,93.81,93.771,93.821,93.892,93.981,94.01,93.956,93.919,93.831,93.809,93.881,93.932,93.937,93.981,93.998,94.0,93.998,94.052,94.069,94.016,94.035,93.871,93.756,93.882,93.936,93.989,93.851,93.756,93.705,93.753,93.857,93.804,93.745,93.766,93.704,93.593,93.571,93.65,93.727,93.826,93.695,93.701,93.65,93.815,93.811,93.798,93.714,93.753,93.755,93.872,93.855,93.802,93.804,93.739,93.714,93.643,93.795,93.882,93.854,93.794,93.761,93.795,93.846,93.829,93.838,93.957,93.862,93.794,93.769,93.704,93.697,93.645,93.63,93.595,93.637,93.673,93.645,93.618,93.627,93.601,93.597,93.692,93.656,93.614,93.61,93.656,93.658,93.706,93.726,93.779,93.779,93.84,93.843,93.894,93.851,93.852,93.81,93.735,93.664,93.675,93.625,93.61,93.52,93.608,93.683,93.645,93.681,93.67,93.58,93.608,93.601,93.861,93.839,93.926,93.87,93.849,93.856,93.851,93.825,93.75,93.716,93.684,93.639,93.648,93.704,93.735,93.67,93.748,93.69,93.563,93.523,93.635,93.657,93.759,93.796,93.784,93.836,93.754,93.793,93.832,93.826,93.844,93.871,93.915,93.959,93.896,93.859,93.856,93.792,93.712,93.71,93.681,93.675,93.68,93.728,93.643,93.642,93.673,93.61,93.543,93.457,93.441,93.525,93.491,93.444,93.373,93.386,93.367,93.311,93.365,93.342,93.34,93.251,93.256,93.328,93.305,93.291,93.318,93.318,93.346,93.373,93.386,93.342,93.336,93.331,93.337,93.405,93.392,93.316,93.36,93.342,93.394,93.364,93.417,93.469,93.454,93.442,93.439,93.434,93.409,93.41,93.487,93.482,93.533,93.581,93.521
2019-05-14,93.93,94.258,94.417,94.499,94.534,94.431,94.51,94.55,94.501,94.463,94.367,94.4,94.472,94.388,94.45,94.59,94.524,94.496,94.567,94.451,94.109,94.148,94.106,94.121,94.06,94.168,94.302,94.377,94.384,94.441,94.504,94.633,94.732,94.605,94.517,94.528,94.602,94.664,94.694,94.695,94.709,94.638,94.672,94.564,94.475,94.55,94.623,94.676,94.685,94.824,94.878,94.895,94.91,94.889,94.863,94.826,94.855,94.915,94.99,95.04,95.015,94.983,95.041,95.148,95.093,95.071,95.053,95.046,95.063,95.117,95.102,95.103,95.1,95.06,95.049,95.062,95.076,95.047,95.015,95.036,94.94,94.941,94.901,94.819,94.732,94.709,94.706,94.619,94.591,94.601,94.635,94.612,94.576,94.467,94.496,94.646,94.8,94.863,94.79,94.678,94.69,94.666,94.77,94.721,94.772,94.794,94.774,94.812,94.929,94.964,94.986,94.95,94.817,94.824,94.892,94.929,94.884,94.829,94.786,94.82,94.803,94.846,94.923,94.832,94.832,94.947,95.006,94.964,94.953,94.857,94.859,94.929,94.977,94.912,94.838,94.838,94.891,94.897,94.968,95.029,94.975,94.975,95.05,95.112,95.121,95.213,95.264,95.17,95.085,95.096,95.083,95.079,95.099,95.154,95.253,95.291,95.29,95.211,95.135,95.15,95.157,95.105,95.072,95.099,95.129,95.065,95.033,95.034,94.945,94.91,94.892,94.898,94.931,94.923,94.775,94.772,94.808,94.85,94.819,94.797,94.844,94.865,94.855,94.952,94.987,94.976,94.938,94.974,95.025,95.04,95.03,95.051,95.073,95.094,95.009,95.008,95.008,95.037,95.04,95.093,95.074,95.071,95.079,95.102,95.16,95.128,95.082,95.138,95.089,95.056,95.099,95.053,95.029,95.033,95.037,95.016,95.012,95.102,95.119,95.064,95.122,95.138,95.199,95.23,95.225,95.257,95.235,95.191,95.209,95.186,95.165,95.119,95.128,95.189,95.19,95.183,95.191,95.176,95.178,95.18,95.181,95.174,95.18,95.119,95.112,95.133,95.137,95.121,95.121,95.044,95.046,95.036,94.908,94.922,94.933,94.912,94.888,94.88,94.866,94.866,94.902,94.9,94.89,94.942,-1.0,94.957,94.983,94.971,94.966,94.923,94.93,94.918,94.876,94.814,94.795,94.81,94.775,94.71,94.723,94.742,94.778,94.823,94.828,94.834,94.857,94.794,94.819,94.846,94.83,94.79,94.787,94.747,94.735,94.757,94.784,94.805,94.749,94.676,94.704,94.717,94.654,94.612,94.615,94.625,94.643,94.621,94.598,94.586,94.597,94.616,94.631,94.636,94.566,94.58,94.589,94.555,94.484,94.442,94.415,94.374,94.326,94.278,94.302,94.319,94.269,94.278,94.334,94.345,94.348,94.355,94.35,94.391,94.39,94.428,94.48,94.441,94.43,94.435,94.436,94.526,94.508,94.449,94.457,94.415,94.382,94.374,94.331,94.299,94.355,94.373,94.397,94.35,94.32,94.3,94.31,94.3,94.392,94.423,94.438,94.477,94.347,94.348,94.35,94.259,94.204,94.205,94.172,94.147,94.175,94.181,94.182,94.153,94.175,94.238,94.249,94.175,94.164,94.216,94.275,94.29,94.301,94.264,94.243,94.21,94.28,94.378,94.275,94.269,94.283,94.282
2019-05-15,93.397,93.811,93.511,93.345,93.558,93.622,93.63,93.814,93.639,93.761,93.808,93.698,93.735,93.696,93.637,93.609,93.723,93.856,93.909,93.825,93.787,93.681,93.693,93.622,93.767,93.813,93.823,93.688,93.644,93.61,93.619,93.561,93.477,93.429,93.471,93.317,93.298,93.372,93.44,93.351,93.442,93.43,93.349,93.396,93.683,93.814,93.671,93.6,93.578,93.64,93.57,93.547,93.564,93.54,93.525,93.592,93.688,93.664,93.633,93.68,93.586,93.652,93.775,93.816,93.814,93.681,93.629,93.684,93.744,93.789,93.818,93.802,93.782,93.835,93.89,93.997,93.962,94.037,94.005,93.976,93.987,94.08,94.112,94.124,94.039,94.094,93.951,93.931,93.957,93.923,93.856,93.78,93.696,93.66,93.702,93.662,93.715,93.779,93.793,93.796,93.844,93.942,93.954,94.011,94.079,94.046,94.106,94.04,94.02,94.017,94.087,94.055,94.013,94.109,94.194,94.258,94.332,94.301,94.329,94.364,94.417,94.21,94.174,94.248,94.3,94.224,94.183,94.137,94.188,94.189,94.248,94.268,94.33,94.321,94.359,94.258,94.224,94.213,94.246,94.266,94.31,94.28,94.223,94.315,94.321,94.297,94.289,94.306,94.39,94.421,94.487,94.513,94.51,94.534,94.544,94.531,94.518,94.497,94.475,94.561,94.494,94.49,94.495,94.459,94.487,94.46,94.397,94.41,94.4,94.366,94.392,94.406,94.394,94.369,94.322,94.318,94.292,94.318,94.434,94.403,94.444,94.448,94.436,94.439,94.464,94.413,94.364,94.333,94.311,94.31,94.275,94.272,94.243,94.26,94.236,94.266,94.212,94.165,94.206,94.219,94.28,94.272,94.256,94.263,94.387,94.425,94.389,94.354,94.322,94.243,94.257,94.274,94.316,94.335,94.354,94.359,94.318,94.315,94.358,94.309,94.309,94.279,94.26,94.258,94.24,94.213,94.209,94.202,94.186,94.18,94.161,94.159,94.152,94.112,94.082,94.102,94.117,94.102,94.14,94.167,94.168,94.231,94.249,94.254,94.316,94.292,94.29,94.362,94.371,94.365,94.383,94.349,94.33,94.33,94.276,94.25,94.2,94.172,94.187,94.192,94.179,94.178,94.196,94.222,94.208,94.227,94.211,94.201,94.179,94.203,94.18,94.197,94.154,94.157,94.21,94.215,94.205,94.208,94.239,94.26,94.299,94.232,94.199,94.166,94.133,94.155,94.238,94.263,94.221,94.213,94.205,94.275,94.322,94.328,94.396,94.345,94.331,94.303,94.278,94.29,94.259,94.228,94.241,94.244,94.279,94.26,94.229,94.162,94.138,94.164,94.175,94.209,94.194,94.264,94.326,94.375,94.356,94.346,94.369,94.354,94.382,94.379,94.372,94.324,94.263,94.218,94.257,94.24,94.219,94.216,94.271,94.264,94.233,94.165,94.144,94.144,94.147,94.136,94.099,94.087,94.095,94.069,94.112,94.116,94.104,94.125,94.152,94.191,94.256,94.296,94.338,94.363,94.336,94.304,94.36,94.365,94.384,94.374,94.386,94.397,94.456,94.442,94.416,94.377,94.397,94.464,94.44,94.46,94.473,94.487,94.483,94.55,94.557,94.574,94.582,94.587,94.574,94.544,94.548,94.546,94.559,94.592,94.609,94.597,94.578,94.503,94.441,94.472,94.465,94.407
2019-05-16,95.055,95.337,95.279,95.525,95.497,95.215,95.411,95.26,95.124,95.34,95.509,95.515,95.559,95.592,95.243,95.085,94.853,94.903,95.033,95.188,95.045,95.136,95.297,95.463,95.539,95.702,95.749,95.696,95.624,95.643,95.517,95.557,95.505,95.512,95.57,95.499,95.44,95.552,95.621,95.564,95.485,95.418,95.346,95.313,95.381,95.467,95.428,95.375,95.394,95.367,95.401,95.395,95.363,95.387,95.491,95.557,95.445,95.393,95.466,95.563,95.631,95.66,95.526,95.499,95.555,95.544,95.557,95.626,95.63,95.745,95.742,95.725,-1.0,95.803,95.717,95.609,95.617,95.689,95.634,95.674,95.663,95.517,95.519,95.622,95.651,95.63,95.597,95.613,95.66,95.737,95.767,95.894,96.01,96.039,96.031,95.856,95.899,95.964,95.882,95.869,95.847,95.874,95.862,95.927,95.868,95.925,95.975,96.001,96.018,96.058,96.027,96.0,96.014,96.075,96.025,95.982,95.953,96.024,96.01,95.974,95.99,96.037,96.011,95.997,96.016,96.002,95.878,95.761,95.883,95.92,95.934,96.011,95.956,96.003,95.937,95.966,95.962,95.921,95.947,95.965,96.037,96.028,95.968,96.029,96.006,96.044,96.065,96.128,96.231,96.23,96.16,96.148,96.119,96.123,96.073,96.021,96.136,96.159,96.147,96.112,96.067,96.03,96.015,96.056,96.068,95.997,95.971,96.038,96.047,96.006,95.921,95.892,95.92,95.909,95.905,95.927,95.901,95.941,95.913,95.866,95.904,95.901,95.936,95.924,95.95,95.963,96.015,95.953,95.972,95.993,95.969,95.964,95.962,95.941,95.926,95.886,95.878,95.862,95.835,95.898,95.859,95.88,95.844,95.889,95.878,95.866,95.877,95.908,95.89,95.892,95.844,95.834,95.775,95.716,95.706,95.677,95.724,95.787,95.811,95.782,95.78,95.811,95.841,95.816,95.78,95.776,95.778,95.74,95.78,95.797,95.774,95.741,95.769,95.778,95.772,95.742,95.747,95.79,95.768,95.774,95.754,95.793,95.806,-1.0,95.81,95.772,95.751,95.716,95.713,95.698,95.683,95.633,95.628,95.614,95.619,95.635,95.668,95.622,95.55,95.495,95.474,95.494,95.459,95.46,95.462,95.474,95.509,95.578,95.572,95.657,95.664,95.66,95.702,95.707,95.685,95.718,95.682,95.635,95.647,95.615,95.591,95.606,95.573,95.594,95.622,95.649,95.66,95.677,95.722,95.738,95.713,95.686,95.703,95.75,95.757,95.779,95.78,95.753,95.711,95.71,95.7,95.682,95.665,95.65,95.649,95.657,95.678,95.7,95.793,95.836,95.829,95.839,95.82,95.86,95.898,95.919,95.924,95.875,95.818,95.824,95.82,95.812,95.76,95.715,95.651,95.635,95.641,95.633,95.594,95.617,95.604,95.585,95.572,95.546,95.628,95.693,95.711,95.629,95.542,95.589,95.562,95.551,95.506,95.467,95.44,95.484,95.474,95.452,95.375,95.392,95.392,95.435,95.497,95.516,95.516,95.542,95.556,95.6,95.593,95.599,95.521,95.534,95.491,95.465,95.463,95.484,95.484,95.431,95.335,95.294,95.243,95.177,95.092,95.072,95.047,95.084,95.114,95.057,95.074,95.075,95.171,95.204,95.246,95.313,95.348,95.303,95.253,95.222,95.256,95.195
2019-05-17,94.278,94.509,94.541,94.545,94.57,94.466,94.511,94.431,94.399,94.32,94.219,94.244,94.327,94.259,94.324,94.4,94.317,94.287,94.312,94.23,94.171,93.949,94.036,93.935,-1.0,94.136,94.127,94.095,94.169,94.228,94.284,94.315,94.223,94.146,94.118,94.076,94.041,94.037,94.033,94.076,94.022,94.028,93.896,93.862,93.783,93.772,93.839,93.795,93.848,93.91,93.99,94.05,94.14,94.175,94.16,94.084,94.041,94.069,94.047,94.01,93.972,93.918,93.908,93.861,93.88,93.806,93.625,93.537,93.533,93.43,93.373,93.394,93.343,93.396,93.445,93.426,93.294,93.316,93.36,93.417,93.597,93.674,93.701,93.742,93.923,93.978,94.01,94.1,94.005,93.87,93.939,93.936,93.882,93.953,93.977,94.07,94.113,94.173,94.155,94.044,93.953,93.927,93.956,94.002,94.071,93.99,94.004,94.075,94.104,94.146,94.189,94.121,94.125,94.106,94.09,94.006,93.974,93.893,93.824,93.811,93.826,93.738,93.749,93.725,93.757,93.757,93.793,93.759,93.772,93.718,93.691,93.679,93.626,93.519,93.511,93.543,93.612,93.57,93.548,93.547,93.539,93.596,93.57,93.618,93.639,93.651,93.686,93.654,93.704,93.773,93.757,93.753,93.775,93.822,93.802,93.74,93.671,93.715,93.642,93.603,93.514,93.463,93.397,93.453,93.409,93.369,93.317,93.318,93.391,93.391,93.405,93.359,93.394,93.416,93.406,93.362,93.325,93.318,93.305,93.19,93.15,93.155,93.077,93.065,93.012,93.078,93.077,93.094,93.12,93.078,93.065,93.018,93.128,93.153,93.102,93.12,93.126,93.065,93.022,93.019,93.014,93.01,93.004,93.015,93.016,93.028,92.983,92.951,92.898,92.871,92.872,92.885,92.9,92.933,92.856,92.911,92.918,92.904,92.939,93.002,93.012,92.957,92.962,92.934,92.913,92.919,93.003,93.041,93.052,93.035,93.024,93.073,93.067,93.083,93.045,93.061,93.059,93.09,93.093,93.078,93.0,93.025,93.114,93.176,93.205,93.263,93.315,93.328,93.301,93.304,93.357,93.324,93.23,93.234,93.271,93.288,-1.0,93.356,93.399,93.427,93.442,93.492,93.495,93.44,93.396,93.376,93.358,93.398,93.424,93.495,93.465,93.419,93.336,93.312,93.287,93.308,93.316,93.312,93.291,93.256,93.193,93.102,93.081,93.078,93.059,93.025,93.007,93.005,93.008,93.023,93.032,92.997,93.026,93.004,93.013,93.006,92.961,92.9,92.899,92.907,92.865,92.883,92.91,92.96,93.029,93.055,93.044,93.108,93.158,93.123,93.06,93.036,93.033,93.061,93.082,93.085,93.11,93.112,93.098,93.127,93.108,93.139,93.18,93.233,93.258,93.285,93.35,93.385,93.359,93.341,93.362,93.216,93.065,93.203,93.097,93.008,92.967,92.951,92.894,92.888,92.822,92.871,92.88,92.806,92.809,92.787,92.758,92.782,92.766,92.759,92.822,92.779,92.797,92.842,92.809,92.791,92.795,92.767,92.796,92.844,92.843,92.759,92.73,92.705,92.752,92.803,92.876,92.9,92.966,92.938,92.889,92.801,92.889,92.992,92.999,92.977,92.981,92.951,92.976,92.939,92.93,93.048,93.095,93.089,93.08,93.128,93.23,93.165,93.066,93.044
2019-05-20,93.207,93.143,93.247,93.243,93.272,93.107,93.101,93.13,92.908,92.971,93.12,93.103,93.271,93.369,93.528,93.689,93.758,93.673,93.543,93.493,93.37,93.396,93.347,93.321,93.24,93.325,93.497,93.691,93.688,93.608,93.665,93.763,93.85,93.797,93.795,93.751,93.681,93.757,93.78,93.919,93.926,93.928,94.013,94.16,94.086,94.121,94.207,94.233,94.184,94.133,94.079,94.038,94.125,94.187,94.272,94.301,94.322,94.247,94.251,94.313,94.279,94.199,94.154,94.22,94.198,94.329,94.305,94.353,94.303,94.345,94.321,94.371,94.412,94.411,94.348,94.363,94.278,94.2,94.263,94.237,94.18,94.274,94.363,94.355,94.433,94.481,94.456,94.43,94.467,94.48,94.444,94.328,94.224,94.177,94.15,94.132,94.111,94.047,94.021,93.973,93.967,94.039,94.123,94.101,94.082,94.042,93.954,93.999,93.902,93.791,93.701,93.73,93.668,93.625,93.759,93.678,93.636,93.708,93.756,93.72,93.846,93.892,93.831,93.861,93.883,93.831,93.763,93.792,93.819,93.788,93.838,93.933,93.872,93.815,93.772,93.857,93.908,93.954,93.896,93.909,93.944,93.97,93.927,93.945,93.975,93.95,93.952,93.947,93.983,94.035,94.061,94.07,94.15,94.091,94.08,94.088,94.103,94.058,94.068,94.001,94.078,94.082,94.057,94.052,94.079,94.082,94.096,94.043,94.034,94.033,94.011,94.013,94.051,94.063,94.053,94.051,94.03,93.998,94.005,93.995,93.987,93.917,93.93,93.909,93.943,94.037,94.07,94.086,94.045,94.017,93.941,93.942,93.929,93.999,93.972,94.02,94.062,94.003,93.997,93.978,93.957,93.955,93.974,93.971,93.935,93.92,93.932,93.855,93.863,93.85,93.801,93.807,93.765,93.736,93.704,93.727,93.778,93.785,93.772,93.75,93.748,93.758,93.73,93.709,93.665,93.648,93.718,93.715,93.72,93.748,93.73,93.72,93.722,93.746,93.689,93.684,93.638,93.615,93.572,93.585,93.57,93.568,93.534,93.592,93.596,93.556,93.568,93.6,93.549,93.514,93.596,93.63,93.595,93.612,93.524,93.548,93.51,93.502,93.55,93.54,93.516,93.443,93.427,93.396,93.364,93.401,93.383,93.356,93.398,93.455,93.43,93.437,93.373,93.341,93.376,93.405,93.423,93.41,93.383,93.357,93.4,93.448,93.466,93.515,93.532,93.475,93.507,93.532,93.52,93.472,93.465,93.502,93.52,93.519,93.508,93.535,93.588,93.6,93.572,93.552,93.58,93.547,93.581,93.523,93.543,93.589,93.585,93.577,-1.0,93.554,93.579,93.61,93.63,93.557,-1.0,93.555,93.58,93.602,93.569,93.6,93.585,93.599,-1.0,93.566,93.589,93.565,93.556,93.581,93.595,93.535,93.501,93.497,93.437,93.424,93.342,93.368,93.378,93.387,93.388,93.373,93.376,93.337,93.376,93.319,93.348,93.374,93.404,93.498,93.495,93.514,93.485,93.545,93.538,93.486,93.47,93.432,93.407,93.423,93.433,93.462,93.489,93.499,93.607,93.597,93.626,93.664,93.692,93.699,93.715,93.728,93.685,93.686,93.666,93.631,93.594,93.597,93.624,93.593,93.575,93.543,93.55,93.538,93.553,93.632,93.647,93.681,93.721,93.685,93.585,93.639
2019-05-21,94.114,94.287,94.3,94.266,94.186,94.139,94.216,94.398,94.391,94.495,94.467,94.619,94.795,94.828,94.762,94.624,94.749,94.776,94.901,94.972,94.961,94.968,95.065,95.028,95.068,95.021,95.103,95.093,95.046,95.018,94.966,95.074,95.186,95.259,95.215,95.14,95.145,95.185,95.131,95.041,95.026,95.049,95.153,95.142,95.049,95.119,95.188,95.171,95.08,95.034,95.047,94.973,94.96,94.888,94.85,94.886,94.973,94.987,94.876,94.841,94.894,94.904,94.85,94.938,94.974,94.954,94.876,94.809,94.765,94.721,94.794,94.733,94.77,94.842,94.868,94.907,94.93,95.016,94.979,94.947,94.889,94.904,94.958,94.964,94.988,94.968,94.975,95.019,95.015,95.057,95.152,95.126,95.084,95.047,95.011,95.017,95.173,95.054,94.991,94.957,94.91,94.93,94.931,94.919,94.976,95.087,95.004,94.988,94.995,95.041,95.063,95.032,95.076,95.158,95.11,95.175,95.2,95.105,95.017,94.981,95.051,95.037,95.042,95.022,95.057,94.973,94.954,94.931,94.871,94.774,94.84,94.877,94.887,94.897,94.84,94.83,94.866,94.894,94.861,94.837,94.799,94.746,94.655,94.6,94.603,94.583,94.639,94.63,94.641,94.714,94.819,94.788,94.784,94.757,94.801,94.849,94.792,94.83,94.82,94.85,94.853,94.903,94.88,94.837,94.959,94.982,94.971,94.914,94.908,94.94,95.017,94.987,95.0,95.015,94.959,94.96,94.957,94.992,94.986,94.999,94.993,94.995,95.03,95.017,95.027,95.021,95.074,95.058,95.036,95.001,94.99,94.988,94.987,94.992,95.008,95.026,95.038,95.01,95.054,95.06,95.082,95.068,95.088,95.013,95.025,95.033,95.0,95.049,95.049,95.034,95.038,95.021,95.043,95.069,95.041,95.025,94.958,94.913,94.934,94.897,94.909,94.934,94.954,94.95,94.944,94.911,94.923,94.926,94.91,94.94,94.928,94.878,94.861,94.885,94.862,94.871,94.874,94.887,94.872,94.867,94.94,94.94,94.927,94.92,94.93,94.926,94.935,94.943,94.957,94.981,94.983,94.956,94.939,94.945,94.93,94.947,94.995,95.03,95.053,95.047,95.022,95.055,95.087,95.055,95.006,94.998,95.009,95.027,95.007,94.991,94.991,95.021,95.051,95.064,95.097,95.132,95.132,95.134,95.153,95.189,95.166,95.17,95.139,95.135,95.154,95.192,95.207,95.196,95.189,95.196,95.185,95.171,95.21,95.24,95.206,95.22,95.176,95.205,95.204,95.189,95.136,95.157,95.182,95.181,95.195,95.197,95.246,95.277,95.28,95.286,95.349,95.402,95.462,95.463,95.468,95.46,95.45,95.478,95.533,95.552,95.55,95.548,95.509,95.506,95.53,95.51,95.474,95.457,95.45,95.463,95.478,95.482,95.427,95.424,95.425,95.433,95.45,95.464,95.478,95.502,-1.0,95.473,95.442,95.433,95.411,95.423,95.395,95.38,95.391,95.414,95.413,95.416,95.392,95.385,95.375,95.385,95.416,95.5,95.545,95.565,95.587,95.63,95.676,95.651,95.634,95.698,95.742,95.766,95.805,95.862,95.911,95.897,95.862,95.86,95.87,95.885,95.868,95.872,95.915,95.886,95.873,95.878,95.885,95.878,95.847,95.832,95.804,95.772,95.783,95.694
2019-05-22,95.017,95.048,95.227,95.191,94.976,94.86,94.992,94.967,94.984,94.98,95.05,94.96,95.013,94.947,94.986,95.009,94.893,94.856,94.956,94.92,94.952,94.902,94.883,94.917,94.953,94.955,95.025,95.002,95.047,95.281,95.279,95.219,95.242,95.206,95.161,95.215,95.17,95.048,94.986,-1.0,94.957,94.851,94.828,94.785,94.722,94.801,94.876,94.791,94.692,94.663,94.636,94.607,94.619,94.677,94.773,94.765,94.701,94.711,94.799,94.77,94.591,94.477,94.487,94.582,94.535,94.445,94.364,94.22,94.214,94.208,94.141,94.144,94.13,94.019,93.967,93.961,93.988,94.003,94.004,93.845,93.879,93.839,93.893,93.841,93.855,93.808,93.728,93.635,93.601,93.653,93.634,93.522,93.501,93.486,93.388,93.446,93.431,93.493,93.51,93.533,93.583,93.539,93.575,93.538,93.512,93.525,93.627,93.621,93.693,93.597,93.567,93.389,93.347,93.368,93.337,93.322,93.274,93.251,93.347,93.349,93.386,93.401,93.404,93.324,93.275,93.21,93.214,93.158,93.094,93.125,93.155,93.156,93.205,93.219,93.238,93.223,93.163,93.23,93.283,93.32,93.371,93.316,93.145,93.133,93.14,93.123,93.059,93.077,93.055,92.945,92.991,92.924,92.835,92.867,92.91,92.811,92.812,92.862,92.855,92.809,92.767,92.824,92.829,92.809,92.782,92.818,92.785,92.79,92.795,92.836,92.825,92.862,92.878,92.907,92.855,92.874,92.852,92.899,92.972,93.007,93.002,92.95,92.88,92.892,92.918,92.89,92.869,92.901,92.943,93.003,92.939,92.826,92.783,92.865,92.844,92.876,92.833,92.727,92.743,92.727,92.666,92.626,92.684,92.696,92.691,92.817,92.918,92.897,92.849,92.872,92.84,92.833,92.827,92.839,92.79,92.668,92.624,92.61,92.633,92.571,92.533,92.609,92.6,92.589,92.561,92.591,92.58,92.569,92.557,92.577,92.628,92.594,92.543,92.572,92.576,92.593,92.582,92.555,92.639,92.697,92.638,92.633,92.63,92.645,92.635,92.656,92.613,92.621,92.668,92.657,92.764,92.8,92.787,92.8,92.815,92.77,92.732,92.723,92.774,92.817,92.814,92.758,92.753,92.735,92.787,92.904,92.933,92.845,92.82,92.814,92.787,92.781,92.766,92.751,92.691,92.645,92.628,92.631,92.624,92.596,92.576,92.557,92.585,92.591,92.564,92.551,92.558,92.52,92.503,92.516,92.556,92.535,92.542,92.576,92.565,92.585,92.651,92.594,92.591,92.535,92.516,92.505,92.572,92.585,92.584,92.625,92.659,92.662,92.692,92.703,92.672,92.661,92.621,92.628,92.61,92.615,92.599,92.662,92.681,92.69,92.692,92.705,92.662,92.609,92.527,92.535,92.538,92.574,92.492,92.421,92.474,92.558,92.509,92.52,92.564,92.638,92.783,92.768,92.817,92.754,92.757,92.754,92.722,92.718,92.736,92.739,92.703,92.655,92.646,92.692,92.725,92.702,92.726,92.802,92.894,92.951,92.926,92.973,92.964,92.855,92.82,92.828,92.846,92.776,92.758,92.749,92.721,92.73,92.743,92.74,92.735,92.719,92.791,92.792,92.824,92.79,92.792,92.756,92.696,92.739,92.829,92.865,92.891,92.927,92.943,92.943,92.954,93.01,92.979,93.008
2019-05-23,91.003,90.233,90.264,89.992,89.558,89.398,89.336,89.253,89.183,89.048,88.653,88.641,88.461,88.097,88.261,88.124,88.196,88.304,88.27,88.652,88.427,88.371,88.486,88.637,88.626,88.344,88.226,88.449,88.616,88.42,88.338,88.363,88.532,88.55,88.612,88.46,88.579,88.531,88.425,88.284,88.225,88.139,88.18,88.057,88.094,88.153,88.042,88.014,88.033,87.84,87.756,87.656,87.604,87.618,87.598,87.423,87.43,87.474,87.408,87.502,87.425,87.458,87.622,87.668,87.889,87.998,87.975,87.975,87.907,87.904,87.92,87.821,87.944,87.841,87.821,87.76,87.943,87.933,87.892,88.01,88.044,88.009,88.009,88.124,88.242,88.198,88.253,88.208,88.227,88.163,88.161,88.028,88.097,88.135,88.34,88.344,88.239,88.365,88.4,88.406,88.367,88.415,88.48,88.576,88.706,88.614,88.606,88.59,88.583,88.528,88.499,88.541,88.508,88.352,88.25,88.365,88.416,88.275,88.199,88.189,88.137,88.046,88.196,88.165,88.13,88.101,88.027,88.171,88.124,88.159,88.074,88.084,88.046,88.115,88.153,88.133,88.087,88.028,88.109,88.104,88.113,88.114,88.101,88.082,88.084,87.997,87.998,88.025,88.006,88.027,88.096,88.06,88.132,88.203,88.249,88.222,88.289,88.227,88.297,88.145,88.252,88.345,88.286,88.32,88.338,88.296,88.253,88.189,88.205,88.157,88.2,88.111,88.099,88.025,88.073,88.134,88.1,88.082,88.086,88.138,88.131,88.107,88.102,88.1,88.106,88.156,88.098,88.127,88.111,88.145,88.094,88.099,88.123,88.111,88.064,88.048,88.14,88.199,88.194,88.244,88.334,88.323,88.317,88.294,88.337,88.328,88.233,88.189,88.106,88.129,88.049,88.046,88.011,88.052,88.016,88.106,88.136,88.164,88.07,88.081,88.07,88.048,88.024,87.964,87.957,87.895,87.869,87.902,87.831,87.817,87.834,87.83,87.774,87.804,87.883,87.849,87.924,87.951,88.019,88.072,88.025,88.057,87.991,88.03,88.066,88.104,88.089,88.177,88.246,88.235,88.24,88.183,88.189,88.181,88.126,88.082,88.054,88.041,88.071,88.066,88.036,88.012,88.036,87.972,87.909,87.876,87.842,87.889,87.949,88.007,88.062,88.042,88.067,87.959,87.918,87.945,87.936,87.957,87.935,87.958,87.96,87.909,87.923,87.902,87.902,87.909,87.934,87.93,87.91,87.973,87.992,88.055,88.143,88.177,88.186,88.171,88.168,88.171,88.174,88.127,88.134,88.088,88.027,88.073,88.111,88.145,88.134,88.137,88.151,88.117,88.096,88.092,88.051,87.953,87.92,87.948,87.966,87.942,87.892,87.836,87.826,87.917,87.948,87.962,88.027,88.056,88.017,88.017,88.061,88.049,88.082,88.069,88.034,87.945,87.934,87.932,87.952,87.987,87.941,87.922,87.937,87.939,87.919,87.906,87.949,87.997,88.1,88.182,88.339,88.299,88.295,88.438,88.447,88.524,88.437,88.444,88.5,88.602,88.571,88.587,88.581,88.65,88.779,88.853,88.888,88.94,89.002,88.96,88.937,88.88,88.802,88.729,88.69,88.604,88.664,88.768,88.703,88.626,88.694,88.699,88.668,88.687,88.676,88.784,88.814,88.809,88.725,88.724,88.705,88.778
2019-05-24,89.697,90.294,89.999,89.972,89.768,89.628,89.567,89.363,89.456,89.481,89.478,89.389,89.341,89.2,89.196,89.141,89.109,89.117,89.022,88.882,88.844,88.866,88.914,88.878,88.872,88.948,89.137,89.078,89.118,89.104,89.168,89.177,89.214,89.272,89.294,89.307,89.253,89.093,89.038,88.943,88.904,89.003,89.004,88.967,88.958,89.019,89.084,89.118,89.091,89.146,89.038,89.097,89.169,89.169,89.117,89.019,89.046,89.115,89.116,88.971,88.955,88.961,88.892,88.77,88.75,88.601,88.551,88.571,88.499,88.498,88.416,88.424,88.402,88.391,88.359,88.426,88.421,88.258,88.262,88.164,88.127,88.032,88.032,88.012,87.945,87.948,87.948,87.943,88.02,88.05,87.973,87.926,87.897,87.912,87.878,87.789,87.762,87.787,87.756,87.629,87.585,87.445,87.36,87.491,87.341,87.349,87.315,87.233,87.32,87.418,87.352,87.35,87.429,87.442,87.478,87.508,87.497,87.476,87.44,87.389,87.451,87.493,87.438,87.451,87.428,87.392,87.444,87.401,87.375,87.342,87.267,87.341,87.395,87.286,87.309,87.326,87.301,87.349,87.302,87.254,87.285,87.279,87.343,87.357,87.355,87.335,87.299,87.257,87.232,87.221,87.182,87.165,87.162,87.155,87.166,87.198,87.205,87.165,87.152,87.103,87.143,87.113,87.102,87.061,87.06,87.009,86.995,86.958,86.911,86.966,87.0,86.993,86.998,86.998,86.989,86.993,86.99,86.986,87.016,87.007,87.005,87.014,87.111,87.222,87.223,87.314,-1.0,87.354,87.383,87.35,87.344,87.257,87.252,87.249,87.25,87.252,87.23,87.227,87.251,87.256,87.183,87.175,87.204,87.181,87.2,87.173,87.174,87.178,87.178,87.188,87.267,87.318,87.279,87.254,87.264,87.23,87.192,87.151,87.14,87.171,87.186,87.142,87.149,87.15,87.157,87.175,87.083,87.186,87.163,87.181,87.108,87.101,87.098,87.081,87.099,87.096,87.096,87.08,87.072,87.006,87.048,87.037,87.056,87.025,87.041,86.976,86.972,86.999,87.045,87.064,87.003,86.997,87.002,86.975,87.004,86.999,86.993,86.996,86.968,86.995,86.995,87.011,87.003,87.0,86.99,86.922,86.909,86.885,86.941,86.978,87.002,86.978,86.993,86.994,86.996,86.962,86.964,86.954,86.909,86.952,86.938,86.904,86.827,86.807,86.804,86.776,86.784,86.737,86.756,86.76,86.765,86.748,86.742,86.746,86.753,86.829,86.927,86.948,86.92,86.902,86.895,86.856,86.889,86.898,86.862,86.766,86.752,86.756,86.761,86.749,86.753,86.746,86.752,86.748,86.752,86.759,86.831,86.917,86.898,86.881,86.886,86.896,86.889,86.901,86.882,86.891,86.894,86.883,86.899,86.916,86.956,86.901,86.956,86.948,86.945,86.887,86.873,86.853,86.852,86.889,86.903,86.975,86.974,87.004,87.02,87.034,87.094,87.074,87.011,86.939,86.948,86.978,86.979,86.917,86.891,86.875,86.871,86.849,86.859,86.907,86.96,86.925,86.973,86.929,86.934,86.921,86.932,86.921,86.874,86.907,86.931,86.98,87.014,87.05,87.06,87.104,87.111,87.195,87.271,87.272,87.234,87.233,87.176,87.159,87.208,87.259,87.177,87.202,87.191,87.136
2019-05-28,87.68,87.795,87.914,87.863,87.795,87.767,87.927,87.878,87.762,87.74,87.797,87.715,87.923,87.898,87.712,87.804,87.925,87.907,87.983,88.028,87.986,87.915,87.887,88.055,88.216,88.209,88.242,88.074,88.123,88.091,88.16,88.123,88.156,88.079,87.991,87.979,88.077,88.116,88.138,88.023,87.864,87.808,87.82,87.858,87.85,87.897,87.937,87.853,87.727,87.739,87.781,87.808,87.884,87.803,87.798,87.721,87.676,87.663,87.577,87.627,87.692,87.619,87.635,87.612,87.549,87.43,87.295,87.281,87.248,87.133,87.095,87.17,87.251,87.258,87.269,87.181,87.291,87.361,87.385,87.383,87.341,87.205,87.046,87.076,87.144,87.085,87.117,87.094,87.133,87.194,87.316,87.388,87.529,87.483,87.428,87.531,87.621,87.687,87.7,87.72,87.668,87.621,87.618,87.696,87.748,87.664,87.664,87.703,87.695,87.785,87.695,87.681,87.707,87.706,87.668,87.696,87.599,87.507,87.518,87.427,87.344,87.303,87.298,87.265,87.325,87.369,87.48,87.433,87.502,87.43,87.581,87.561,87.596,87.629,87.607,87.613,87.563,87.574,87.551,87.472,87.416,87.464,87.415,87.361,87.337,87.267,87.259,87.284,87.371,87.362,87.399,87.395,87.413,87.462,87.433,87.389,87.417,87.416,87.427,87.361,87.346,87.341,87.452,87.51,87.528,87.546,-1.0,87.532,87.591,87.599,87.634,87.632,87.604,87.58,87.614,87.631,87.653,87.659,87.65,87.613,87.631,87.617,87.55,87.464,87.486,87.492,87.494,87.47,87.465,87.419,87.412,87.381,87.407,87.41,87.388,87.319,87.399,87.385,87.429,87.385,87.364,87.365,87.435,87.416,87.368,87.338,87.353,87.334,87.34,87.306,87.302,87.358,87.448,87.513,87.495,87.465,87.523,87.569,87.551,87.555,87.508,87.552,87.621,87.61,87.571,87.592,87.604,87.666,87.637,87.572,87.579,87.564,87.589,87.573,87.575,87.555,87.548,87.594,87.557,87.574,87.562,87.581,87.565,87.599,87.644,87.647,87.694,87.757,87.722,87.685,87.713,87.774,87.754,87.693,87.683,87.668,87.664,87.637,87.631,87.675,87.738,87.747,87.704,87.689,87.618,87.666,87.618,87.591,87.615,87.632,87.613,87.552,87.564,87.508,87.496,87.471,87.452,87.496,87.46,87.454,87.47,87.427,87.389,87.35,87.337,87.408,87.418,87.441,87.503,87.505,87.471,87.481,87.475,87.452,87.41,87.399,87.424,87.451,87.46,87.421,87.341,87.421,87.415,87.396,87.389,87.298,87.27,87.254,87.265,87.205,87.159,87.1,87.08,87.088,87.067,87.114,87.126,87.175,87.189,87.246,87.243,87.335,87.349,87.32,87.378,87.397,87.405,87.418,87.448,87.471,87.413,87.415,87.366,87.369,87.388,87.44,87.521,87.567,87.519,87.459,87.433,87.439,87.403,87.396,87.459,87.528,87.561,87.547,87.541,87.522,87.458,87.459,87.458,87.48,87.493,87.481,87.536,87.492,87.472,87.412,87.338,87.332,87.291,87.299,87.324,87.287,87.278,87.29,87.287,87.31,87.29,87.347,87.342,87.313,87.253,87.264,87.257,87.275,87.304,87.3,87.305,87.291,87.263,87.269,87.284,87.317,87.244,87.244,87.289,87.207
2019-05-29,85.758,86.056,86.065,86.021,85.779,85.644,85.843,85.891,85.651,85.631,85.653,85.66,85.623,85.658,85.69,85.597,85.569,85.45,85.306,85.323,85.29,85.288,85.326,85.252,85.327,85.441,85.424,85.369,85.435,85.332,85.277,85.237,85.263,85.246,85.34,85.34,85.252,85.298,85.232,85.192,85.347,85.333,85.367,85.533,85.593,85.701,85.774,85.793,85.81,85.707,85.696,85.733,85.731,85.744,85.739,85.693,85.796,85.841,85.873,85.825,85.866,85.854,85.812,85.751,85.729,85.711,85.84,85.802,85.762,85.816,85.814,85.734,85.705,85.791,85.849,85.734,85.787,85.83,85.757,85.71,85.815,85.723,85.704,85.688,85.697,85.678,85.707,85.757,85.755,85.733,85.666,85.737,85.702,85.719,85.67,85.588,85.55,85.591,85.628,85.597,85.564,85.356,85.404,85.394,85.277,85.223,85.068,85.136,85.167,85.131,85.009,84.974,84.873,84.804,84.828,84.863,84.948,84.897,84.869,84.826,84.899,84.981,84.995,84.94,84.969,85.019,84.935,84.859,84.865,84.831,84.705,84.657,84.545,84.42,84.463,84.438,84.538,84.484,84.506,84.525,84.537,84.505,84.365,84.308,84.322,84.313,84.416,84.351,84.319,84.34,84.425,84.452,84.43,84.38,84.417,84.438,84.535,84.55,84.604,84.61,84.628,84.67,84.752,84.76,84.806,84.799,84.878,84.87,84.91,84.891,84.793,84.76,84.703,84.671,84.609,84.685,84.739,84.736,84.66,84.705,84.722,84.792,84.795,84.779,84.781,84.809,84.712,84.77,84.855,84.903,84.913,84.893,84.894,84.93,84.966,85.009,85.049,85.01,84.96,84.901,84.932,84.909,84.869,84.85,84.893,84.909,84.951,84.945,84.971,84.947,85.0,84.981,85.159,85.153,85.127,85.166,85.229,85.294,85.383,85.57,85.572,85.702,85.675,85.554,85.501,85.4,85.417,85.456,85.454,85.415,85.493,85.465,85.458,85.466,85.522,85.561,85.528,85.602,85.671,85.688,85.689,85.822,85.879,85.884,85.837,85.838,85.881,85.941,85.9,85.921,85.908,85.873,85.812,85.77,85.802,85.788,85.756,85.749,85.773,85.816,85.863,85.834,85.75,85.694,85.689,85.664,85.677,85.648,85.638,85.633,85.665,85.651,85.639,85.655,85.69,85.694,85.695,85.735,85.718,85.709,85.648,85.689,85.645,85.576,85.55,85.57,85.593,85.593,85.595,85.639,85.619,85.691,85.705,85.724,85.719,85.73,85.771,85.833,85.827,85.875,85.859,85.777,85.768,85.757,85.798,85.783,85.826,85.862,85.87,85.875,85.846,85.781,85.822,85.81,85.731,85.724,85.705,85.724,85.778,85.766,85.731,85.75,85.715,85.739,85.78,85.755,85.817,85.881,85.939,85.968,85.944,85.924,85.885,85.859,85.877,85.849,85.831,85.842,85.869,85.89,85.859,85.872,85.907,85.933,85.968,85.99,85.976,85.998,86.045,86.092,86.061,86.159,86.19,86.171,86.188,86.212,86.229,86.202,86.149,86.153,86.171,86.155,86.106,86.126,86.225,86.378,86.378,86.361,86.333,86.311,86.346,86.383,86.37,86.424,86.416,86.4,86.373,86.398,86.462,86.496,86.478,86.42,86.463,86.461,86.503,86.546,86.535,86.599,86.573,86.51
2019-05-30,86.26,86.255,86.226,86.317,86.141,86.024,86.043,86.071,85.722,85.691,85.785,85.881,85.992,85.972,86.014,85.985,85.979,86.019,85.981,85.991,85.9,85.916,85.993,85.992,85.931,86.004,86.16,86.077,86.038,86.029,85.85,85.874,85.879,85.889,85.838,85.764,85.669,85.59,85.613,85.637,85.646,85.716,85.779,85.682,85.722,85.729,85.724,85.575,85.444,85.4,85.359,85.38,85.399,85.359,85.343,85.313,85.354,85.361,85.347,85.297,85.353,85.269,85.215,85.25,85.144,85.076,84.997,85.067,85.072,85.08,84.997,84.925,84.928,84.914,85.01,85.04,84.986,85.003,84.945,84.899,84.821,84.791,84.74,84.831,84.875,85.009,85.061,85.238,85.368,85.262,84.908,84.651,84.334,84.278,84.476,84.515,84.32,84.282,84.334,84.405,84.395,84.488,84.616,84.686,84.747,84.668,84.619,84.563,84.44,84.331,84.289,84.244,84.064,83.943,83.917,83.916,83.914,83.969,83.894,83.885,83.972,84.023,83.94,84.015,84.092,84.2,84.259,84.328,84.307,84.33,84.357,84.276,84.353,84.256,84.246,84.171,84.194,84.171,84.123,84.028,84.001,83.927,83.843,83.853,83.856,83.932,83.963,83.973,84.038,84.057,84.128,84.077,84.044,84.032,84.063,84.034,84.073,84.131,84.064,84.047,84.028,84.017,84.068,84.02,84.101,84.145,84.159,84.307,84.338,84.343,84.329,84.314,84.288,84.305,84.274,84.228,84.188,84.218,84.219,84.189,84.161,84.126,84.125,84.144,84.203,84.219,84.244,84.288,84.321,84.323,84.362,84.313,84.282,84.29,84.352,84.348,84.343,84.447,84.457,84.413,84.479,84.461,84.476,84.461,84.468,84.43,84.463,84.449,84.419,84.438,84.416,84.413,84.439,84.433,84.417,84.395,84.344,84.315,84.237,84.216,84.216,84.223,84.227,84.196,84.216,84.208,84.259,84.244,84.248,84.233,84.331,84.383,84.36,84.321,84.354,84.379,84.362,84.382,84.359,84.406,84.395,84.295,84.246,84.212,84.214,84.134,84.127,84.119,84.126,84.105,84.088,84.083,84.139,84.192,84.178,84.141,84.165,84.119,84.138,84.109,84.146,84.206,84.281,84.337,84.356,84.4,84.343,84.349,84.351,84.364,84.327,84.413,84.437,84.445,84.43,84.433,84.385,84.334,84.278,84.22,84.278,84.286,84.26,84.249,84.204,84.132,84.109,84.131,84.112,84.133,84.167,84.16,84.143,84.11,84.06,84.022,84.041,84.083,84.133,84.089,84.065,84.036,84.05,84.032,84.052,84.052,84.024,83.963,83.944,83.953,84.003,84.036,83.993,83.946,83.952,83.919,83.981,84.006,83.973,84.004,84.056,84.056,84.047,84.066,84.077,84.149,84.201,84.187,84.167,84.182,84.153,84.147,84.124,84.145,84.15,84.129,84.129,83.969,83.929,84.014,84.016,84.061,84.099,84.118,84.141,84.062,84.043,84.051,84.049,84.079,84.032,84.028,84.003,84.009,83.996,83.94,83.918,83.965,83.995,83.997,83.948,83.928,83.983,84.009,83.982,84.057,84.081,84.107,84.12,84.078,84.059,84.05,84.059,84.034,84.025,84.041,84.047,84.063,84.021,84.005,84.014,84.015,84.031,84.016,83.987,83.935,83.923,83.925,83.892,83.905
