,09:30,09:31,09:32,09:33,09:34,09:35,09:36,09:37,09:38,09:39,09:40,09:41,09:42,09:43,09:44,09:45,09:46,09:47,09:48,09:49,09:50,09:51,09:52,09:53,09:54,09:55,09:56,09:57,09:58,09:59,10:00,10:01,10:02,10:03,10:04,10:05,10:06,10:07,10:08,10:09,10:10,10:11,10:12,10:13,10:14,10:15,10:16,10:17,10:18,10:19,10:20,10:21,10:22,10:23,10:24,10:25,10:26,10:27,10:28,10:29,10:30,10:31,10:32,10:33,10:34,10:35,10:36,10:37,10:38,10:39,10:40,10:41,10:42,10:43,10:44,10:45,10:46,10:47,10:48,10:49,10:50,10:51,10:52,10:53,10:54,10:55,10:56,10:57,10:58,10:59,11:00,11:01,11:02,11:03,11:04,11:05,11:06,11:07,11:08,11:09,11:10,11:11,11:12,11:13,11:14,11:15,11:16,11:17,11:18,11:19,11:20,11:21,11:22,11:23,11:24,11:25,11:26,11:27,11:28,11:29,11:30,11:31,11:32,11:33,11:34,11:35,11:36,11:37,11:38,11:39,11:40,11:41,11:42,11:43,11:44,11:45,11:46,11:47,11:48,11:49,11:50,11:51,11:52,11:53,11:54,11:55,11:56,11:57,11:58,11:59,12:00,12:01,12:02,12:03,12:04,12:05,12:06,12:07,12:08,12:09,12:10,12:11,12:12,12:13,12:14,12:15,12:16,12:17,12:18,12:19,12:20,12:21,12:22,12:23,12:24,12:25,12:26,12:27,12:28,12:29,12:30,12:31,12:32,12:33,12:34,12:35,12:36,12:37,12:38,12:39,12:40,12:41,12:42,12:43,12:44,12:45,12:46,12:47,12:48,12:49,12:50,12:51,12:52,12:53,12:54,12:55,12:56,12:57,12:58,12:59,13:00,13:01,13:02,13:03,13:04,13:05,13:06,13:07,13:08,13:09,13:10,13:11,13:12,13:13,13:14,13:15,13:16,13:17,13:18,13:19,13:20,13:21,13:22,13:23,13:24,13:25,13:26,13:27,13:28,13:29,13:30,13:31,13:32,13:33,13:34,13:35,13:36,13:37,13:38,13:39,13:40,13:41,13:42,13:43,13:44,13:45,13:46,13:47,13:48,13:49,13:50,13:51,13:52,13:53,13:54,13:55,13:56,13:57,13:58,13:59,14:00,14:01,14:02,14:03,14:04,14:05,14:06,14:07,14:08,14:09,14:10,14:11,14:12,14:13,14:14,14:15,14:16,14:17,14:18,14:19,14:20,14:21,14:22,14:23,14:24,14:25,14:26,14:27,14:28,14:29,14:30,14:31,14:32,14:33,14:34,14:35,14:36,14:37,14:38,14:39,14:40,14:41,14:42,14:43,14:44,14:45,14:46,14:47,14:48,14:49,14:50,14:51,14:52,14:53,14:54,14:55,14:56,14:57,14:58,14:59,15:00,15:01,15:02,15:03,15:04,15:05,15:06,15:07,15:08,15:09,15:10,15:11,15:12,15:13,15:14,15:15,15:16,15:17,15:18,15:19,15:20,15:21,15:22,15:23,15:24,15:25,15:26,15:27,15:28,15:29,15:30,15:31,15:32,15:33,15:34,15:35,15:36,15:37,15:38,15:39,15:40,15:41,15:42,15:43,15:44,15:45,15:46,15:47,15:48,15:49,15:50,15:51,15:52,15:53,15:54,15:55,15:56,15:57,15:58,15:59
2019-04-01,400,600,143,213,1,447,272,600,2,701,171,114,0,0,2,0,100,400,2,0,100,0,100,200,199,100,100,100,0,100,215,0,0,200,200,100,0,100,108,0,274,200,0,100,0,100,0,200,0,120,402,600,100,100,100,1,0,0,0,100,200,0,0,0,0,200,0,200,0,0,100,0,100,3,100,0,300,100,100,301,0,300,0,300,203,200,200,4,0,0,0,0,107,201,130,37,150,201,100,300,48,0,100,100,0,100,200,0,388,0,600,0,0,0,100,100,0,0,0,300,400,13,100,675,304,700,200,0,400,0,0,0,0,0,0,0,400,200,0,0,101,0,100,0,200,0,200,0,114,0,100,700,0,0,0,151,0,0,0,0,100,100,0,0,0,0,0,0,0,100,105,100,0,0,225,11,0,4,0,200,0,100,0,0,5,0,0,0,100,200,38,33,100,48,100,0,100,0,0,125,0,0,0,0,0,0,0,0,0,200,155,0,0,2,101,0,105,102,300,0,0,0,0,0,0,0,27,73,100,100,102,103,0,100,0,100,100,0,200,100,3,0,100,0,0,100,0,100,0,0,100,0,0,100,0,100,100,0,200,354,0,100,200,200,0,4,0,0,0,100,300,100,100,200,268,100,700,0,300,1087,400,100,110,401,100,606,106,100,120,100,0,0,0,100,0,0,200,0,100,5,300,92,3,0,0,259,0,100,0,100,100,100,0,300,800,100,100,101,200,0,144,0,0,100,100,0,100,0,173,200,48,0,0,100,100,100,0,0,29,0,503,100,109,200,100,103,200,265,102,100,103,200,100,125,595,1800,1,400,100,300,216,0,400,600,500,3299,2833,674,266,100,203,297,300,217,411,640,300,500,600,200,582,100,500,200,300,520,1218,1311,909,1392
2019-04-02,300,100,0,51,0,362,138,0,0,227,533,260,317,212,8,0,404,901,1520,100,1,214,100,443,600,2002,2258,1701,1200,1201,0,0,582,0,0,200,717,0,100,0,0,0,0,0,0,200,0,0,0,8,1,253,0,0,182,155,0,100,0,0,13,0,0,104,100,102,0,0,0,100,0,100,46,0,0,100,581,0,300,0,300,0,100,100,16,200,100,400,400,300,100,0,350,100,0,502,200,100,100,200,300,500,4698,700,1400,800,5,100,400,386,685,100,0,105,800,300,0,300,0,0,0,100,100,1500,100,0,0,103,25,0,100,0,100,0,100,0,110,100,400,5,0,0,100,200,100,0,200,76,0,100,0,0,100,0,0,100,100,100,200,100,400,0,0,0,0,3,100,37,22,0,0,15,200,0,200,0,0,400,38,0,300,165,0,300,0,0,95,0,0,0,100,0,0,0,0,200,0,0,0,0,4,9,0,0,100,0,100,200,0,0,0,0,500,0,100,0,0,0,0,0,100,4,0,0,0,0,200,496,0,0,0,0,0,0,0,100,0,0,0,0,116,200,127,0,0,0,100,0,0,0,0,0,100,5,0,0,200,229,0,0,114,0,100,0,200,200,0,0,100,100,138,0,0,100,0,11,100,0,0,0,200,0,50,100,0,190,100,0,100,100,100,0,17,100,200,0,0,0,100,0,0,0,0,0,0,200,0,300,450,104,65,101,682,269,430,100,195,700,700,1015,192,0,400,30,0,107,209,0,100,200,700,2228,300,2000,614,229,386,0,505,812,100,136,304,100,301,185,100,26,16,108,62,300,0,603,100,202,104,1604,1800,0,6,100,0,0,300,0,300,0,100,400,0,212,100,100,200,913,1595,400,200,500,400,400,2528,600,876,500,328,1600,1415,1051
2019-04-03,200,200,0,151,0,384,2,95,0,100,100,251,1300,41,10,200,701,901,800,1401,800,400,0,0,200,700,400,100,100,400,700,400,745,700,300,203,0,7,200,1,29,200,100,0,100,21,100,300,100,0,800,300,103,300,300,2631,913,1000,0,0,911,203,100,100,0,0,1433,821,1314,722,327,100,0,100,0,100,48,200,4,0,200,0,103,350,100,100,0,200,100,201,200,100,7,200,0,30,0,0,0,0,0,205,200,4,0,200,0,200,0,100,100,0,300,0,100,200,291,28,100,100,260,100,201,0,100,100,100,0,200,100,0,0,21,411,21,209,0,100,0,100,0,200,37,100,400,100,0,108,100,1,400,325,1413,500,12,414,300,200,0,604,340,702,132,101,100,100,300,201,200,1,300,104,414,4,100,67,1025,900,400,224,331,664,200,700,200,300,100,0,400,1000,650,288,12,800,1000,300,202,0,300,300,500,1595,100,300,100,100,100,0,100,2,0,0,100,0,0,100,0,241,0,100,0,0,10,0,0,300,0,300,100,0,100,201,200,100,200,0,0,142,100,210,100,0,100,0,0,101,0,0,100,0,21,0,130,300,13,500,1200,900,900,200,1,308,0,230,100,204,0,100,5,175,25,1222,939,300,100,100,100,0,168,0,0,1,0,0,0,0,100,0,1,1,100,13,167,200,3,120,0,0,0,3,100,100,0,101,11,101,0,0,353,200,2,325,100,153,100,502,226,600,414,504,402,0,0,100,801,506,508,300,0,405,106,301,207,200,400,1007,500,101,200,21,5,200,201,299,109,712,100,274,595,301,100,135,54,200,202,100,100,0,1,300,2100,426,1600,204,818,684,200,401,200,0,0,100,403,17,101,100,312,0,305,0,400,200,1126,1600,1465,1120,1372,3351,3975,3161
2019-04-04,0,0,930,200,100,100,19,0,300,1,100,1100,365,0,100,0,0,200,442,15,300,300,1036,564,300,0,0,100,46,46,900,528,1428,100,427,300,400,400,1100,46,1,45,2,246,100,0,100,0,0,0,400,1300,3700,1102,530,200,200,0,0,0,0,0,548,113,100,247,0,2,546,0,70,100,165,900,100,100,5099,0,6,312,0,300,315,530,0,400,0,0,165,200,100,300,700,503,1206,101,554,1115,717,1538,863,475,400,1019,4,100,300,300,200,500,500,200,100,0,400,200,400,600,1302,3502,200,100,200,100,0,200,300,500,0,7800,500,200,900,200,500,100,400,1857,854,14016,2100,0,800,1400,6545,400,5641,400,1105,2188,1017,1396,1496,975,100,500,600,4128,0,0,200,300,300,0,100,201,100,100,100,228,200,128,0,100,100,200,100,1,100,0,0,100,0,400,2,2,2,1,300,32,100,100,400,0,38,0,0,213,0,300,5,7,0,1954,300,900,300,300,0,200,0,0,128,0,513,7,0,0,0,0,12,0,0,0,0,0,0,36,29,300,3600,4123,0,500,200,0,0,500,4606,3905,500,5900,0,0,110,0,39,300,77,0,0,0,172,28,400,0,0,300,500,672,200,200,500,109,800,4192,4114,2774,11140,2100,1025,675,1126,600,200,0,3465,9852,803,1687,2238,4200,10400,500,1000,909,1499,3752,600,689,2200,0,2000,121,0,361,0,483,100,8,100,221,100,300,3,38,100,0,0,400,100,300,200,102,205,0,103,100,100,0,0,0,38,100,0,34,100,100,0,0,5,2,0,0,0,8,11,100,1861,100,100,0,0,0,100,0,0,0,10,3,0,0,200,0,0,0,241,200,707,102,554,100,100,170,100,700,407,787,495,723,1395,789,2593,0,651,800,500,200,600,400,801,478,1005,401,2000,804,700,2590,4425,5798
2019-04-05,0,100,0,300,0,505,86,100,101,474,100,0,100,100,312,0,0,200,0,105,200,0,200,200,100,300,120,181,100,229,100,0,300,804,0,100,300,62,1,1111,302,100,209,0,0,300,200,100,700,120,0,502,733,300,731,1061,711,785,201,100,500,364,89,300,500,500,600,2000,100,200,400,0,300,100,300,780,100,400,505,100,1885,1604,538,100,178,500,700,1994,500,124,200,200,100,300,0,300,185,0,200,300,375,100,100,500,1500,1300,278,0,200,101,354,404,425,300,100,2,500,400,109,616,1,600,508,493,1698,1704,36,1200,2238,1130,200,200,0,0,0,0,0,0,0,100,0,0,100,0,0,1,80,0,0,0,0,300,0,0,400,263,101,0,200,100,0,24,100,169,1,0,0,0,300,38,2113,13,411,200,0,1012,200,0,2,100,0,0,0,0,0,0,0,451,703,200,174,200,0,100,100,0,494,0,100,118,0,0,100,0,200,100,208,21,147,239,200,0,314,640,235,300,306,217,111,300,4,1916,438,1700,1200,204,1500,200,100,1000,111,316,290,623,500,185,0,200,1225,1109,1071,600,5,0,0,0,0,0,337,312,479,100,700,595,300,200,0,100,100,200,200,200,300,200,100,201,200,320,0,229,0,20,140,390,1000,800,584,3248,375,100,100,1225,300,200,0,500,383,0,11,0,100,200,0,0,500,203,100,300,31,37,0,201,375,600,600,400,290,96,400,200,77,0,299,100,500,0,200,200,0,561,200,61,0,400,700,100,300,4500,4900,3097,500,810,0,0,200,791,600,200,0,300,700,1013,1400,100,353,442,0,100,100,1,206,200,170,0,103,2,200,200,131,200,500,100,300,209,748,700,312,500,200,400,351,833,253,600,113,307,904,305,766,426,1340,720,609,700,714,1717,700,3097,5037,10846
2019-04-08,300,382,188,700,300,200,25,479,212,185,325,5,203,209,300,618,302,205,300,200,2001,400,3429,300,0,100,700,184,300,400,310,300,300,246,900,900,2800,900,1183,1431,1800,100,0,700,0,175,200,731,1200,300,413,111,0,0,282,2200,100,102,300,200,400,385,1300,295,300,400,300,300,100,1935,1510,200,100,300,100,0,478,106,0,100,116,107,0,0,0,100,100,100,3,100,20,200,898,0,1202,1053,232,1100,0,0,265,100,600,400,200,200,0,128,0,9,110,24,200,0,296,620,100,0,100,0,300,0,0,224,0,0,0,100,100,200,990,300,500,0,325,161,0,9,50,100,218,0,200,100,0,0,100,0,0,0,200,0,0,0,0,0,201,200,121,200,710,0,0,0,125,0,100,0,2,6,107,0,0,643,2500,2305,1444,300,0,1400,10,1000,1000,1900,1055,4000,210,200,0,0,391,100,100,108,203,103,100,100,0,94,100,100,200,0,100,0,300,40,0,100,0,0,100,100,100,3,288,268,100,51,18,0,0,100,0,100,0,0,0,100,0,0,0,100,0,0,0,0,14,198,410,300,100,100,100,0,100,0,457,100,744,100,100,383,235,382,300,175,300,400,100,100,103,0,140,0,9,300,400,0,0,104,607,1900,6602,5100,2000,500,100,100,300,0,0,0,0,0,0,0,0,100,0,3378,266,103,0,0,1500,207,100,179,964,288,100,100,150,50,0,0,0,0,0,200,0,0,46,95,116,2,0,500,100,0,100,100,0,0,3,352,355,0,714,0,722,178,100,0,0,0,300,0,0,0,0,100,0,216,44,0,10,0,400,200,1039,200,200,0,60,0,3,39,509,0,0,0,100,208,50,1097,500,0,100,100,203,0,200,300,0,37,205,307,262,8,199,0,171,4685,200,2826,610,3067
2019-04-09,0,283,0,0,6,4,919,281,0,486,100,100,0,100,129,47,0,1296,750,0,0,0,0,400,0,100,384,376,381,100,400,200,0,610,15,100,514,0,762,0,700,510,1251,108,400,100,0,200,0,501,400,300,0,100,297,181,100,100,1692,100,100,105,100,0,0,0,0,0,300,200,0,100,0,0,100,100,0,100,100,0,0,100,0,0,0,0,100,303,200,0,300,0,0,100,300,0,0,0,300,0,200,302,100,144,1,129,200,306,300,500,400,756,100,100,500,205,0,100,300,100,100,307,3,0,700,607,0,100,100,100,0,200,200,0,362,800,170,5,100,0,1100,200,231,300,1459,400,0,27,100,300,500,401,366,200,100,200,0,0,200,100,0,100,200,0,700,400,200,0,600,403,372,400,100,20,100,0,200,200,0,0,404,0,200,400,300,290,100,0,0,205,400,0,300,200,111,100,49,200,100,1172,100,900,59,300,100,318,300,0,0,700,0,200,0,200,225,100,200,210,400,0,200,200,300,400,100,200,100,100,200,400,100,0,400,400,0,0,600,100,100,0,200,0,300,300,200,200,200,200,907,700,500,100,100,100,0,0,0,0,0,0,100,200,0,100,300,204,0,100,0,0,250,50,300,0,204,0,100,0,0,300,0,200,100,9,0,100,0,200,400,100,380,207,500,0,300,4,1000,200,600,0,200,200,500,400,700,600,100,500,100,400,500,400,400,400,105,500,400,500,400,100,200,600,600,447,117,0,258,402,623,100,1697,736,200,600,200,1000,700,500,600,200,700,295,150,300,100,200,101,100,318,100,500,740,233,100,0,100,100,12,800,500,400,700,200,100,708,500,402,1402,301,700,417,615,2097,500,2,500,0,1000,200,200,717,900,1204,803,800,1600,1626,4719,2210,3760
2019-04-10,0,0,100,200,359,0,0,0,0,0,100,0,0,100,603,100,300,100,600,600,1110,1000,100,300,314,396,200,200,528,100,74,10,100,100,1300,110,400,600,200,200,500,201,100,800,111,400,1900,0,500,1200,1700,400,0,0,136,200,232,0,100,0,0,600,300,200,0,448,200,0,100,104,140,329,89,1000,0,310,200,964,100,116,200,500,100,0,582,313,100,100,0,100,0,328,100,900,1000,57,1567,900,100,100,147,362,0,200,200,100,336,100,200,0,300,605,373,508,419,200,10,228,147,500,100,100,100,400,102,100,200,0,378,20,200,400,100,100,0,100,110,100,0,300,200,900,100,100,400,200,700,200,0,500,800,603,300,500,200,200,100,300,110,0,0,0,900,202,735,200,100,0,200,0,100,400,557,100,100,100,0,110,200,500,100,400,0,371,200,0,10,0,0,100,300,200,400,100,156,100,18,600,410,200,200,100,100,900,0,200,0,122,236,0,700,216,6000,400,500,205,0,100,908,211,134,0,59,10815,400,1540,245,109,24,100,128,82,330,0,100,0,200,100,100,0,0,0,0,51,100,141,0,0,0,0,0,0,0,0,48,100,200,0,0,200,100,103,0,100,100,100,100,201,110,200,200,0,14,0,2564,36,0,0,100,0,200,0,0,300,200,102,200,204,415,21179,280,0,200,0,100,100,300,300,0,700,0,100,14,100,100,0,100,100,100,200,0,100,0,0,10,0,0,600,300,100,37,0,100,84,0,216,0,0,300,202,100,445,14,100,300,300,100,115,105,102,759,100,0,200,200,300,0,191,0,307,0,300,100,128,300,600,0,200,200,100,100,0,200,200,0,400,200,200,125,500,500,5651,1152,436,700,3110,2405,1600,200,899,300,609,553,1043,811,1758,1004,975,1600,2393
2019-04-11,1,0,0,0,100,100,100,38,0,117,0,0,20,0,110,100,200,709,100,0,101,0,100,1,100,100,100,0,110,500,100,0,0,0,112,31,300,148,0,1,200,115,0,10,200,100,70,0,100,100,0,400,200,536,398,456,158,10,0,0,0,200,200,100,100,0,100,0,0,100,0,100,610,100,50,200,1102,0,600,100,100,320,0,200,181,0,310,300,0,100,200,200,0,400,412,200,100,26,100,0,200,10,100,100,200,300,100,0,0,0,209,664,100,0,1300,510,1500,200,600,100,1900,200,100,200,0,200,1561,0,105,300,400,310,700,100,100,783,0,0,400,0,0,200,99,1706,10,0,100,200,500,0,200,0,0,100,0,700,400,100,910,0,564,1500,100,100,100,0,700,2700,0,2200,0,900,200,0,110,200,600,500,400,700,600,1500,0,200,700,200,0,10,0,1263,501,897,0,100,0,0,0,0,700,200,0,713,200,100,100,100,0,0,0,0,300,100,0,100,0,100,10,0,0,200,100,0,33,400,0,0,0,210,1459,0,110,0,300,1901,400,100,0,300,400,200,300,0,300,0,100,10,200,100,0,0,0,0,249,100,0,200,100,0,200,110,100,200,0,0,0,200,0,1800,1465,100,0,0,0,10,0,0,0,3,0,0,0,0,0,100,0,0,22,0,10,0,0,200,300,100,0,0,0,0,150,0,0,0,100,10,6,0,0,0,0,0,137,0,0,0,0,0,100,0,210,220,234,0,0,200,0,200,210,0,0,0,700,0,10,100,0,100,0,0,0,200,0,58,0,12,0,0,251,140,100,0,0,0,0,0,0,100,100,0,0,0,10,0,0,0,0,0,219,100,14,100,0,0,300,120,100,167,100,900,521,1180,200,498,211,303,700,100,300,205,885,1624
2019-04-12,994,976,200,100,94,650,1087,300,2117,0,0,300,803,300,300,100,7,148,2103,1399,1200,1100,0,100,1100,400,3658,100,100,252,502,983,309,300,100,300,10,97,300,1600,700,0,200,200,2,48,100,0,800,803,300,425,900,300,337,320,1237,110,0,100,100,1211,500,1390,300,50,30,51,500,0,200,200,500,900,300,791,300,100,100,100,500,400,0,400,0,100,200,100,0,102,0,26,27,200,100,0,600,925,130,100,0,0,0,0,100,0,0,100,202,0,200,500,200,300,100,303,0,100,400,200,100,200,100,3,0,0,0,100,0,100,10,0,0,100,200,0,0,200,0,108,0,200,100,100,170,212,300,0,0,100,100,0,155,582,200,100,234,200,300,300,20,28,100,100,0,200,115,200,200,202,0,100,200,100,100,0,18,100,1300,100,0,2600,20,0,0,0,100,4,100,194,2700,300,600,910,800,200,325,100,700,0,200,700,262,700,700,938,394,1304,2600,0,100,400,661,1900,110,0,199,200,90,724,307,146,532,1803,500,100,201,200,100,700,274,527,200,487,500,1110,1329,1031,7861,415,1340,204,200,204,401,551,557,120,150,201,315,298,250,1733,177,210,300,202,272,600,240,400,600,938,0,275,300,400,248,500,370,500,800,600,400,402,500,300,400,900,205,520,145,2317,1869,579,1102,730,302,600,600,700,753,564,931,301,439,200,200,1518,700,100,0,100,130,758,200,100,100,500,1705,614,300,200,800,900,802,1300,300,761,200,205,1000,3700,1006,953,287,100,800,100,200,157,200,0,940,1000,70,100,361,216,200,100,1578,365,200,0,7,0,100,300,100,124,929,412,100,0,232,1086,220,351,1015,214,200,350,2225,100,0,1000,900,400,1230,600,500,100,1000,157,522,619,711,600,300,200,148,259,700,200,828,1103,2647,3358
2019-04-15,0,0,273,417,114,964,100,671,200,328,0,100,0,300,100,700,700,630,664,813,210,618,1000,710,400,700,658,963,500,400,1000,900,919,500,1000,600,400,200,100,309,200,0,400,100,0,118,130,101,181,35,300,600,900,2103,709,200,606,500,100,900,903,140,1403,500,100,700,800,100,510,700,455,102,202,700,0,0,110,200,700,373,325,100,300,1041,212,1800,100,100,205,2373,800,200,5,100,0,500,580,700,100,200,0,0,231,100,1000,608,1847,980,206,480,5,116,200,0,205,200,0,3500,200,50,0,0,0,1503,104,0,0,50,100,0,3357,605,0,502,700,739,0,2700,875,359,400,512,1869,217,100,83,100,300,800,375,493,0,300,400,100,1400,72,300,100,540,0,200,150,100,260,108,450,164,320,260,20,0,0,0,100,90,111,100,10,0,103,0,100,0,0,0,0,0,204,0,100,50,190,0,0,100,200,0,100,110,161,100,300,100,0,0,2,0,100,0,400,0,203,328,0,230,8,100,100,0,100,0,0,212,101,0,0,383,221,100,100,150,159,0,0,540,200,13,0,300,0,100,368,400,472,100,400,100,285,500,100,900,400,0,60,200,100,0,0,0,505,0,700,160,0,0,100,445,0,342,300,100,0,300,0,0,105,215,0,400,104,260,0,100,500,0,108,186,0,239,865,5490,500,0,300,0,0,0,0,100,100,52,48,0,0,0,0,256,100,101,100,500,250,1349,200,300,0,0,400,500,200,300,300,100,100,594,0,400,0,200,0,98,100,300,200,0,321,0,100,100,200,0,0,100,0,0,100,300,400,0,100,0,100,0,403,202,100,0,100,2200,1843,2200,1402,922,1800,1200,7758,700,360,268,272,300,1000,146,800,414,454,200,1700,1881,3150,500,1689,502,4411,9100,10758,2704,4516,4877
2019-04-16,0,200,785,200,500,614,100,100,100,300,100,100,100,400,300,100,500,400,0,214,600,0,0,800,1013,200,200,0,100,100,4960,7400,1100,500,371,1000,1292,1018,1600,2,900,200,97,600,0,721,202,400,200,400,597,327,200,0,300,500,600,700,215,800,238,100,100,200,400,100,300,200,200,301,400,700,772,300,500,700,800,100,400,0,540,300,0,400,400,500,500,0,200,269,100,200,53,0,242,0,7,0,0,450,300,119,100,0,0,200,0,9,55,114,32,200,292,15,1000,200,100,315,300,500,0,892,0,102,910,400,100,100,100,500,0,100,0,0,0,0,100,56,100,0,100,200,200,620,1100,300,1100,3300,600,0,744,1013,1628,800,3284,1046,946,1500,300,100,500,1715,2,0,0,700,200,300,500,300,0,716,33,1700,300,0,86,100,0,6,94,0,113,100,210,191,200,13,0,201,99,300,200,409,0,5,195,200,0,0,100,100,100,3100,200,0,0,0,42,100,0,0,100,200,200,0,200,0,0,0,200,200,100,100,200,0,0,0,1483,100,300,28,0,319,100,399,100,200,100,0,0,0,0,101,100,100,0,800,200,100,203,100,0,85,0,662,600,200,35,885,0,450,306,400,101,200,400,400,500,300,500,801,300,504,300,1200,1600,1400,700,309,200,0,406,700,400,300,200,300,500,1629,100,100,500,0,0,119,300,254,0,300,200,200,0,0,0,0,188,0,0,0,100,0,0,0,100,0,0,0,300,200,0,200,0,0,0,100,900,500,0,0,0,0,300,100,200,300,500,1,144,29,429,300,200,300,400,250,405,300,500,300,900,145,100,200,100,468,219,301,300,3,20,219,200,750,100,600,100,400,400,100,800,100,500,100,300,600,200,300,100,700,1200,1100,500,616,673,431,1116,2104,965,2998
2019-04-17,200,419,800,400,600,232,0,0,100,483,0,0,300,200,600,0,0,0,0,0,0,100,0,0,0,0,5,0,100,0,90,0,300,230,116,100,100,200,0,100,100,0,100,500,200,96,0,774,1391,1100,2725,1480,2000,458,288,0,200,200,300,108,600,400,0,200,395,300,300,100,303,165,400,203,5,16,100,200,400,0,100,16,3,100,200,265,100,713,100,600,0,500,70,0,0,100,800,1000,100,400,800,900,1300,1000,400,1089,400,200,400,555,900,1700,500,355,300,500,600,350,200,200,100,0,703,200,300,855,200,149,200,300,702,66,0,0,600,100,110,200,732,200,392,651,281,100,0,626,500,301,400,1000,600,200,513,3800,131,200,300,100,2539,500,200,320,3,0,0,600,100,0,200,200,845,300,400,200,125,100,220,300,400,45,500,107,200,6,100,800,235,0,37,0,30,0,100,100,524,752,200,0,0,0,100,112,300,200,100,0,0,200,300,100,100,0,0,100,100,0,100,0,200,0,100,0,5,0,199,100,200,0,0,805,0,400,0,100,827,100,300,600,0,1784,0,200,0,200,200,100,0,400,198,2,0,10,45,0,278,1,505,101,100,100,0,100,100,0,610,0,0,5,102,200,200,500,0,100,0,100,0,0,300,0,200,0,200,200,0,100,0,100,420,0,100,100,200,200,200,100,100,0,100,100,100,0,100,0,100,100,133,200,0,100,0,200,100,200,100,100,276,0,0,100,311,300,100,500,0,0,0,169,200,0,200,140,300,100,0,205,0,100,100,0,311,165,100,200,105,385,300,300,301,100,100,0,100,200,300,0,150,62,0,600,0,0,100,100,100,200,100,480,100,195,0,300,0,97,500,300,344,506,576,1005,200,258,100,300,0,500,1000,764,230,1708,1515,1741
2019-04-18,0,0,0,0,0,100,300,500,0,347,400,500,600,200,500,100,300,300,2108,1128,100,200,100,100,0,300,216,1300,401,100,300,2967,0,200,0,300,100,14,0,12,400,100,0,100,100,200,100,0,0,0,0,300,0,400,0,100,400,200,0,100,499,0,600,300,100,200,0,200,0,0,10,0,0,169,300,0,0,0,3,100,800,300,0,0,100,200,200,0,200,400,0,100,100,0,100,0,0,0,100,15,68,100,100,200,400,300,140,5,100,4,0,0,0,0,0,0,100,0,300,0,200,200,0,100,100,0,0,0,100,0,0,300,100,0,200,0,0,100,100,7,12,300,0,100,0,0,0,0,0,0,100,650,0,0,0,400,0,0,0,0,0,0,0,100,10,0,200,0,100,0,0,400,0,0,0,400,0,0,300,200,0,100,0,102,100,0,0,300,403,100,0,100,10,0,0,0,100,100,100,0,0,0,0,100,0,0,0,0,0,100,0,100,0,0,0,0,200,100,0,0,0,100,0,0,0,100,0,200,49,0,100,0,0,0,0,0,99,0,0,0,107,0,0,1000,0,0,0,200,198,100,0,0,0,0,0,200,0,0,460,0,214,500,0,100,300,0,0,0,0,107,0,100,200,0,0,0,200,0,100,0,0,500,0,0,0,0,8,0,0,500,90,0,0,200,0,100,300,0,100,0,0,212,0,200,0,306,8,0,200,0,300,100,0,0,100,0,8,0,2900,100,100,175,0,100,100,0,0,0,300,0,0,200,0,0,3,0,0,106,0,300,200,100,0,100,0,280,100,500,100,100,0,100,100,207,100,100,0,0,132,100,3300,1153,948,622,208,100,200,763,144,200,100,0,200,107,400,403,145,324,185,0,800,200,204,620,110,785,488,636,1200,1986
2019-04-22,60,341,12,400,0,200,229,147,651,906,200,100,0,100,378,0,40,0,100,100,100,0,251,600,300,400,100,100,0,200,100,100,0,300,200,50,311,200,100,300,400,656,300,300,100,100,100,143,58,228,300,800,270,195,200,451,400,304,304,2792,1400,405,395,2200,145,300,200,600,100,400,1474,200,118,0,0,0,0,0,200,0,100,0,200,329,0,500,0,100,200,500,0,0,100,100,0,13,177,0,0,100,123,65,150,100,0,100,0,100,0,405,112,0,200,0,100,300,0,0,88,200,100,102,366,100,182,2599,11283,1154,400,5594,1,600,200,100,98,100,6749,1641,0,0,200,953,2746,10088,8824,2063,8060,22775,7931,1101,300,100,200,100,300,300,500,400,200,700,101,205,110,176,100,309,0,203,33,200,200,359,100,0,100,0,101,238,235,300,100,307,400,300,408,100,0,0,214,101,0,0,0,0,100,159,100,100,0,48,0,100,0,100,0,200,21,0,0,100,100,100,178,300,712,100,100,500,700,100,0,30,0,0,305,200,100,200,100,100,0,0,0,300,200,200,100,208,100,600,7,0,0,200,100,200,0,0,100,0,300,0,0,400,417,500,0,0,0,0,100,100,0,100,0,400,200,100,168,200,0,0,205,0,0,0,200,6,0,0,0,100,100,0,0,0,200,0,0,100,0,0,100,0,0,0,500,0,105,200,0,200,0,0,100,0,100,0,100,100,0,1455,0,0,500,300,0,307,100,300,215,306,0,200,800,200,1600,1607,500,1000,700,1000,500,503,200,300,900,800,125,301,300,100,0,0,103,100,300,800,756,289,100,400,0,300,0,302,100,640,0,1200,0,21,200,1305,300,626,1402,2016,1100,900,800,14,100,8,0,1477,213,487,700,300,600,300,600,988,1000,2008,608,1761,2913,4400
2019-04-23,100,118,0,100,0,200,257,100,200,0,200,0,0,300,0,36,900,800,0,200,100,100,100,114,344,200,113,500,562,600,100,200,0,210,1448,476,700,400,0,100,0,400,0,1000,400,1299,1542,147,492,0,300,1400,0,0,536,100,210,0,0,39,200,200,120,0,300,16,100,0,100,0,100,100,700,300,0,300,200,200,100,100,300,1400,351,1000,100,286,0,0,300,0,200,0,300,0,100,0,0,200,0,100,32,200,100,0,200,100,0,300,0,0,0,200,0,132,1400,0,0,300,100,300,200,300,400,0,0,200,100,300,500,515,412,905,100,100,0,300,512,600,200,801,7,2400,200,432,200,100,16,1515,1000,768,700,794,402,0,600,200,233,1600,100,600,1200,300,401,600,1201,400,484,0,100,301,400,400,104,0,315,200,300,400,114,212,0,200,700,300,200,0,510,100,100,500,300,606,881,1085,700,800,200,200,400,950,100,206,300,340,567,307,445,200,500,200,1359,1300,400,400,103,801,400,2,1200,600,901,400,2300,3952,4800,100,700,900,1502,950,300,1300,502,709,1800,1100,100,800,100,300,750,113,0,0,500,200,735,200,454,500,700,800,600,200,1500,6095,1000,400,300,600,2900,400,700,200,2,100,200,0,100,904,586,1782,538,867,400,300,600,800,100,800,200,759,800,400,800,700,2761,1100,500,500,1500,3912,3600,405,1100,4717,958,2179,100,0,0,300,400,400,202,600,200,300,600,800,500,400,400,0,253,2241,0,300,200,500,0,104,1400,1600,100,600,200,400,800,1000,800,100,300,800,100,300,815,0,605,400,300,400,500,614,700,5800,100,105,300,400,100,100,300,400,202,400,300,200,606,802,709,200,905,424,5,405,300,100,205,510,705,1905,305,506,300,701,1140,2000,1708,1642,402,839,1277,900,2914,1830,1363,1580,3017,3112
2019-04-24,316,0,101,0,413,394,161,43,188,20,316,300,201,800,100,1033,356,614,691,23,200,100,1700,900,113,800,81,1215,0,0,0,0,0,100,494,300,100,46,165,427,1771,277,5146,1104,0,11,153,29,0,13,726,400,60,118,100,0,0,33,0,0,0,0,100,0,234,0,0,0,0,200,0,100,262,301,200,400,200,300,76,0,100,0,200,1427,400,0,100,310,1777,859,200,474,100,1367,300,100,889,0,2392,533,400,200,0,300,400,806,100,630,807,400,708,2060,100,200,0,400,100,114,200,100,0,200,10,0,0,200,40,100,200,200,0,200,0,800,0,0,200,0,0,200,0,0,0,0,0,0,100,0,0,0,0,21,100,400,300,0,100,0,0,0,100,56,144,0,0,100,0,0,0,0,0,0,100,100,200,0,0,0,0,0,247,0,0,0,0,88,410,0,364,100,0,0,0,0,0,0,100,0,0,0,0,0,0,0,200,0,100,0,600,500,500,100,100,0,0,0,0,100,0,1,0,0,0,200,100,200,0,0,0,100,0,232,0,100,0,0,0,600,476,800,300,7,0,0,49,85,51,100,126,0,300,208,800,200,85,0,1282,0,0,0,0,0,0,168,100,256,2,118,100,209,249,0,100,200,430,267,300,0,0,8,92,270,27,205,73,113,73,0,43,200,117,541,0,211,0,0,13,8,202,207,109,100,432,243,0,100,10,190,1,0,0,120,6,119,0,526,0,100,1300,0,40,100,100,0,0,0,0,400,200,100,0,200,10,0,2199,323,0,100,100,100,0,199,226,217,850,100,0,0,230,100,662,706,111,246,993,0,306,42,356,603,711,240,400,211,507,662,0,9,497,100,100,300,100,200,500,100,283,400,100,745,362,385,400,735,1515,2881,2165,2700,2471,1186
2019-04-25,20,0,0,100,123,0,0,0,100,100,102,0,45,1000,500,0,0,0,0,200,0,60,0,100,200,1117,931,180,100,383,200,800,0,0,464,2,0,0,300,200,300,200,400,300,100,0,0,332,200,200,100,300,400,100,200,100,266,345,100,634,700,0,100,0,0,0,0,0,0,0,100,100,0,200,200,0,0,400,500,300,600,700,500,700,4925,187,118,100,0,0,224,300,0,629,100,2896,2429,8500,500,139,100,224,300,402,586,300,200,300,300,100,200,300,100,2550,800,700,300,100,0,400,400,153,0,1000,900,700,256,344,0,100,100,0,0,0,0,300,0,95,405,700,400,100,300,0,200,2200,588,400,25,1507,276,0,100,300,31,200,0,200,0,0,1150,288,0,300,300,100,0,200,100,100,400,292,0,317,100,200,0,0,0,200,200,100,85,100,0,300,100,167,0,0,0,0,232,0,268,100,200,200,100,0,200,265,100,300,100,0,0,0,0,107,0,400,0,300,0,100,100,100,200,0,21,375,200,299,400,147,300,0,400,140,0,100,500,100,100,200,100,0,200,300,100,100,0,0,100,0,0,0,300,0,0,100,0,100,100,0,200,102,198,0,0,0,0,0,100,0,100,0,100,3,197,0,200,200,0,0,0,0,100,420,0,200,400,0,400,0,116,0,100,0,0,2,200,300,200,310,361,161,100,5300,100,400,0,100,0,200,0,625,45,0,400,100,300,0,1188,1620,280,200,284,29,400,200,259,100,0,200,222,200,100,71,130,104,161,0,200,0,28,441,186,882,400,100,1340,190,205,400,100,100,0,0,200,100,200,200,200,812,627,600,700,100,400,100,100,300,502,243,100,100,300,300,100,200,700,0,200,949,413,100,400,600,1200,1800,616,1229,2436,5517,3790,3431,4038,4054
2019-04-26,200,0,0,0,200,400,299,200,400,0,600,600,600,100,300,200,0,1881,0,569,1703,212,535,200,0,0,500,200,0,0,0,0,0,400,0,0,100,100,100,0,0,17,123,4300,200,100,51,100,0,254,0,100,133,0,413,713,100,0,200,0,300,100,100,0,200,2,0,300,200,0,0,0,95,100,530,100,0,300,500,0,0,0,200,200,100,1000,300,304,200,400,100,400,0,0,30,100,0,0,100,0,0,0,0,0,800,0,400,200,0,100,0,0,1040,263,0,900,1800,3800,700,100,300,4500,3000,500,160,23,0,300,0,26,100,300,200,100,850,0,1075,400,500,1250,300,600,0,0,0,100,100,200,0,0,100,0,100,100,0,385,300,900,0,300,4350,100,100,100,100,0,0,300,200,301,800,200,0,0,0,0,0,0,300,200,101,200,0,0,400,1,300,200,150,200,100,200,242,0,300,100,151,200,283,0,103,300,0,400,100,200,100,300,0,64,515,279,0,0,632,601,400,0,0,200,107,100,9704,607,200,0,0,107,201,295,101,101,100,100,0,100,201,400,0,200,300,0,700,300,100,0,240,0,100,0,0,31,0,101,0,100,99,390,0,0,0,0,200,0,0,203,0,188,200,200,0,0,204,0,200,400,346,1,200,200,101,0,100,201,300,100,0,0,200,0,0,300,225,300,200,300,607,212,600,200,800,20,500,106,601,200,300,28,74,0,100,100,0,100,0,100,0,0,0,200,300,400,0,115,0,0,300,6,200,100,310,0,100,108,200,210,1102,0,703,800,1168,100,5,100,0,100,26,4,300,1301,1100,200,100,200,900,1,56,198,300,0,0,400,220,500,0,300,400,2392,1313,600,900,200,400,100,915,475,900,1700,300,100,1465,1400,749,2200,967,2000,3075,780,1126,40364
2019-04-29,0,0,214,0,0,801,100,600,21,478,200,200,0,100,0,0,100,1400,1000,856,400,200,400,100,340,100,731,100,300,35,0,226,300,0,0,0,100,400,100,118,0,100,1,100,0,125,309,150,150,215,0,0,300,100,0,0,300,1,0,0,100,100,400,0,0,0,200,100,100,100,200,0,100,0,0,262,0,100,100,342,100,0,300,500,100,25341,300,638,61,200,200,100,4,100,437,114,400,100,0,0,100,0,300,2700,504,600,500,0,200,343,257,100,0,4,777,112,678,322,0,0,29,300,200,100,0,0,105,0,100,9,0,200,0,300,200,0,0,200,0,1421,100,100,100,0,462,0,300,0,200,100,0,0,0,0,52,0,0,0,0,0,0,0,100,200,0,0,0,0,0,0,400,100,25,0,0,0,0,0,0,0,324,0,0,411,0,63,8,5,0,0,300,100,100,200,400,1700,2388,488,0,0,300,0,300,100,100,0,0,0,100,0,0,400,0,0,0,0,0,0,100,50,0,316,9,200,0,0,0,0,0,0,100,0,500,0,0,11,100,0,0,100,100,0,0,0,0,0,803,18,200,0,0,0,0,0,100,110,0,54,0,0,100,100,0,0,0,100,100,100,0,0,0,0,0,0,0,0,0,0,0,0,0,0,0,0,0,0,0,0,101,100,0,200,0,2,200,0,0,602,0,521,100,0,0,202,0,9,100,0,49,0,0,52,251,100,200,510,0,0,215,123,100,0,100,0,700,0,0,100,0,100,200,1,0,200,0,100,0,0,10,0,100,5,0,100,0,100,0,100,0,24,0,100,0,100,5,76,0,0,193,0,215,1005,1300,100,300,334,127,134,400,310,1277,324,0,100,201,400,200,600,805,409,500,1004,700,400,708,897,0,671,103,10194
2019-04-30,261,200,0,0,127,247,200,52,82,52,227,0,300,0,58,0,0,465,5700,100,559,0,0,100,0,506,230,400,300,0,901,390,800,0,0,500,18,1422,1385,615,0,411,0,0,426,1637,1183,4510,1207,626,800,714,229,304,1103,200,0,200,0,587,100,0,200,104,200,0,100,274,100,100,0,2,0,192,0,1181,388,1216,457,100,15,200,200,100,0,0,14,200,1100,200,1320,292,610,659,447,340,291,750,311,4673,885,265,481,568,500,100,200,3695,1400,1200,400,300,132,212,2242,444,600,420,1507,3746,700,400,200,300,304,0,0,900,300,200,1000,1414,603,1218,806,2065,19002,400,140,1908,1057,100,100,300,300,1000,0,101,200,170,200,100,0,100,0,200,100,100,0,0,631,300,200,4,0,100,100,42,100,300,400,100,0,0,300,0,70,0,0,229,1900,300,0,200,400,100,0,0,10,20,30,600,400,0,0,257,750,220,0,0,0,100,205,100,0,0,20,310,74,0,103,170,0,0,0,100,0,0,16,0,263,0,0,100,991,114,86,209,100,10,100,200,600,100,100,200,0,0,100,1310,300,1,100,100,27,518,414,410,0,8,300,101,130,0,0,0,0,801,525,214,318,209,0,5,207,321,0,282,100,0,0,0,531,0,29,100,200,200,500,500,12,200,100,200,4048,544,300,11976,230,342,0,201,400,300,300,2307,200,0,160,0,126,0,500,0,300,100,700,912,90,1576,100,630,4640,2823,0,15,85,100,210,400,409,184,107,0,0,150,0,0,0,100,1700,2700,205,200,100,205,209,119,0,2,29,126,10102,111,204,103,5606,15512,110,211,302,100,11,389,5,100,5407,500,376,5200,9,300,100,5302,560,925,1200,241,5,571,483,5700,1200,745,401,300,300,109,1486,2220,1600,666,671,200,411,2303,700,806,800,6750
2019-05-01,100,0,0,602,200,400,332,0,100,69,1400,0,1100,100,200,25000,810,800,700,928,439,700,0,401,301,500,1050,100,110,200,100,201,800,500,309,191,0,600,847,1957,0,100,304,125,100,800,1701,1107,400,600,0,500,200,200,300,500,600,800,100,1700,709,2300,549,401,661,210,152,300,0,1,2403,200,875,600,700,200,300,1300,100,0,0,100,0,522,300,222,0,600,1261,400,300,701,621,937,3087,789,1580,725,1090,100,89,84,101,311,4254,0,801,100,315,0,700,101,0,0,139,230,2,100,600,814,601,200,100,1,0,100,22146,601,1017,341,1000,100,400,100,1500,402,1600,2500,5401,2322,1300,3302,700,300,300,310,400,1160,907,110,101,800,700,937,300,1809,407,500,100,200,111,840,1908,601,100,200,15,0,365,266,72,800,300,300,200,100,0,200,200,303,0,0,300,550,1624,400,400,0,100,400,250,200,143,300,300,524,100,2900,1300,1300,300,300,200,400,8251,769,401,500,100,0,300,300,269,200,100,0,200,100,105,200,0,700,1100,200,0,0,0,0,200,100,300,500,1400,0,0,0,600,600,0,10,200,100,175,236,266,0,403,2300,400,300,800,0,300,100,100,300,200,1300,400,0,0,100,21,28,0,0,200,200,0,100,201,100,1100,500,2533,100,0,404,1000,100,100,110,1000,0,200,100,300,600,541,300,200,1400,516,100,261,200,2767,600,500,709,300,924,900,293,200,301,674,200,175,0,200,100,0,200,300,1000,206,0,0,200,400,200,539,100,100,300,300,100,200,300,395,587,0,329,0,0,300,0,506,0,99,200,86,300,212,1200,300,543,100,1230,0,400,200,102,434,0,1102,2528,3870,865,600,900,400,560,1142,570,3237,1202,347,727,303,4262,340,200,535,555,607,100,1096,900,1722,300,500,522,1373,968,474,1339,2135,7255
2019-05-02,100,0,504,250,503,200,200,135,104,924,1300,0,200,300,215,100,35,0,900,303,636,210,300,0,500,820,200,2304,100,100,100,100,474,831,200,210,100,100,300,200,100,1117,600,0,300,229,0,0,200,100,400,200,200,200,4,400,8,251,100,200,300,100,100,100,0,0,200,200,0,0,0,200,0,0,4,200,1,58,200,169,0,0,200,100,100,27,300,200,248,0,1634,200,1438,6,1420,448,700,100,100,325,400,154,305,100,156,1005,59,200,200,213,225,50,26,100,0,0,6,394,943,305,301,200,485,400,0,1401,201,0,0,100,100,0,100,0,180,0,0,0,0,3,100,0,100,93,200,200,101,0,302,401,0,0,0,100,74,1,1,200,0,601,0,460,1301,999,200,39,0,100,40,30,400,0,800,700,1500,20,6,300,2297,100,200,513,812,200,300,300,400,5,400,312,12,100,0,0,300,699,100,0,104,204,300,882,126,313,1087,1,400,100,0,101,300,0,0,0,100,200,0,300,17,96,200,300,200,0,1000,0,32,100,200,101,100,0,101,181,1,200,0,1100,0,0,200,105,400,200,16,0,19,86,114,300,100,300,603,800,735,0,300,100,200,0,300,600,0,100,900,0,100,0,400,0,0,200,100,10,200,100,149,100,156,300,17,105,0,0,164,100,0,300,200,0,100,10,279,2,0,200,100,24,100,1146,100,0,100,504,100,72,46,0,187,100,100,1629,1571,1400,450,100,0,101,328,0,93,300,100,200,830,214,0,507,857,312,333,0,328,0,900,198,215,0,109,230,106,100,594,124,302,200,0,215,0,109,100,830,0,0,103,0,305,0,600,25,212,0,0,300,300,1076,750,198,9,279,9,201,100,1083,148,304,910,1109,790,1128,1205,1997,3826,3517,3852,5070,707,1518,974,6087
2019-05-03,0,4600,900,1610,1502,3956,2543,1989,1500,4300,0,100,157,351,1700,1978,2600,700,1209,1702,200,100,500,900,0,700,500,0,800,451,1618,805,1384,1200,710,662,113,574,0,900,100,500,621,2100,800,454,100,800,400,1000,2353,300,562,380,1400,1000,2394,1300,2600,700,13500,1500,3700,6900,995,2169,300,200,701,200,777,1144,342,1121,21,900,1400,800,100,500,1000,200,5862,100,113,700,151,400,229,763,1150,310,312,882,500,0,603,642,301,200,970,100,1138,2100,117,5300,200,824,326,331,0,0,247,200,237,100,0,0,0,24,100,0,253,0,425,100,0,0,0,687,300,400,100,200,200,281,790,748,0,200,300,100,100,248,329,67,233,254,100,600,0,128,277,100,0,101,200,100,300,0,405,300,600,0,137,565,0,100,100,500,0,0,100,0,375,100,0,200,200,49,400,0,222,620,100,887,93,205,0,100,200,205,200,174,100,600,200,0,0,100,241,100,300,0,100,0,2913,305,0,209,0,143,0,300,100,0,0,0,500,100,100,200,270,430,600,300,125,500,300,100,0,100,100,0,100,100,210,500,32,200,100,100,1200,341,236,100,100,0,285,0,100,0,0,300,200,0,0,200,100,700,387,300,100,156,441,100,174,100,200,400,0,102,0,200,100,0,200,100,100,200,0,0,0,0,537,600,0,100,300,0,380,403,386,0,0,8,300,200,0,0,300,0,0,200,0,0,100,200,205,200,100,400,0,300,200,200,300,200,100,200,90,0,0,205,100,430,300,0,200,0,100,127,0,0,300,0,8,105,0,0,0,0,0,100,200,0,0,100,179,200,200,200,100,282,200,555,45,0,175,170,0,100,200,257,100,400,114,301,771,529,1000,509,641,111,100,390,800,300,372,800,508,309,479,300,638,1001,705,2900,1829,3780
2019-05-06,100,556,0,300,0,302,524,10,200,0,68,0,0,0,100,100,100,300,100,500,800,909,200,935,928,200,600,200,100,100,876,900,0,153,247,900,286,0,545,206,0,100,100,200,108,410,651,200,303,602,300,200,500,286,400,100,400,100,0,100,117,100,0,0,400,0,100,0,200,100,810,100,100,1118,229,0,812,449,1097,1418,660,0,800,1542,100,102,97,346,0,0,0,569,0,100,100,300,2,401,100,100,220,100,100,0,100,0,150,245,100,105,0,100,308,300,0,0,0,14,0,200,443,0,55,1,102,3,200,100,0,0,100,100,9,100,600,0,104,23,0,0,100,115,800,100,111,800,360,500,200,100,0,100,0,0,100,0,100,200,102,100,0,100,0,200,501,0,0,200,200,0,0,100,505,0,502,100,0,109,300,800,532,302,100,100,100,1100,100,0,100,800,0,0,0,100,300,300,0,100,0,0,100,700,800,6860,1413,700,700,400,100,378,200,100,200,200,200,200,395,200,100,959,872,0,0,100,400,0,200,0,100,100,408,0,300,100,0,0,200,100,200,400,400,0,100,0,0,126,0,200,600,600,0,100,0,0,0,0,300,145,102,0,441,0,0,100,0,500,200,0,408,180,102,374,100,114,0,300,400,200,300,251,600,100,700,708,351,100,273,100,0,0,0,700,86,0,200,206,4,200,0,400,406,232,414,1623,606,300,800,100,0,0,100,0,1036,54,200,219,449,266,404,100,0,300,300,400,148,0,300,259,300,200,0,125,0,300,803,301,302,829,600,202,300,1100,313,229,1103,200,297,300,184,200,101,330,100,300,0,711,300,100,2562,1800,602,200,1100,600,242,392,1853,512,341,419,104,1200,604,1503,605,400,897,393,1000,407,318,300,679,2037,2902,2321,1306,906,1004,6374
2019-05-07,702,300,600,100,697,200,590,400,500,100,100,1103,421,200,201,0,104,30,0,0,3200,100,100,0,132,226,100,0,0,200,800,300,300,450,600,1100,500,200,400,802,324,600,0,333,200,600,100,200,0,200,400,400,100,600,0,299,100,223,100,108,100,300,200,0,100,100,0,300,2278,780,7893,45,139,400,161,300,1800,400,250,100,100,100,100,100,500,100,1,100,136,100,700,300,300,1400,300,627,100,1017,153,500,0,13,202,200,5,0,100,400,0,188,100,0,0,200,851,200,200,0,200,100,0,330,200,100,0,0,100,600,1705,800,100,100,0,0,200,0,700,0,0,300,0,0,100,200,115,136,0,100,15,200,500,0,600,100,104,100,500,0,0,0,100,0,0,0,100,100,222,0,0,0,0,0,100,0,0,0,200,0,0,0,0,0,100,100,0,283,262,100,0,200,100,0,600,324,167,208,0,0,0,100,46,100,0,13,0,105,0,100,679,114,686,200,500,100,600,1000,889,800,395,101,0,214,704,710,0,0,0,202,0,0,100,0,100,0,414,290,0,100,100,0,587,300,210,200,300,100,100,15,200,0,629,2100,100,104,0,0,101,0,125,100,100,0,78,100,100,100,0,0,20,0,312,0,0,0,100,0,200,300,0,100,100,0,0,0,554,0,100,200,200,0,0,100,0,300,400,300,0,300,302,20,80,200,200,200,300,1400,1316,1100,300,0,0,100,200,100,3,0,200,149,0,0,19,105,176,300,100,100,100,159,203,97,304,0,400,303,100,98,61,110,100,0,0,100,100,1989,600,100,500,132,100,1100,100,400,200,91,300,100,1200,300,500,101,400,200,200,225,1533,200,300,2000,0,300,600,0,257,218,200,400,198,100,300,200,10,0,500,307,1000,776,421,510,541,1147
2019-05-08,200,0,100,100,0,100,100,200,500,100,0,1400,400,106,0,200,100,200,440,500,400,400,500,107,0,100,100,100,100,100,222,24,400,125,0,0,1,0,300,900,10,100,0,200,0,0,110,0,0,100,250,1200,100,101,1400,1300,800,500,0,100,300,496,500,200,0,400,200,200,0,100,7,0,110,200,830,0,300,0,700,100,0,0,200,0,100,6,0,414,252,465,1606,388,400,2316,850,1264,100,120,200,362,403,746,300,500,915,1788,800,432,600,0,0,300,136,360,120,0,0,0,100,0,100,100,100,587,330,600,200,300,288,0,0,200,0,100,752,200,0,156,0,0,13,0,100,0,200,0,300,0,0,200,200,0,100,0,0,0,0,102,0,0,123,73,300,300,458,246,0,300,100,400,399,200,0,0,0,200,111,200,200,300,0,0,0,100,0,0,100,0,268,100,100,102,0,0,0,200,100,200,445,38,0,100,497,300,0,500,300,200,566,300,300,0,0,0,200,200,100,300,221,100,400,100,0,102,100,128,316,100,623,200,0,20,0,0,300,403,200,0,0,300,0,600,200,11,240,100,772,274,0,0,0,0,101,100,0,100,228,25,200,2,0,0,14,231,11,121,331,0,0,0,100,0,100,343,314,0,200,200,500,100,100,1,0,100,0,101,6,100,149,44,502,31,201,290,500,236,502,4,56,307,200,100,200,0,302,100,100,100,0,0,7,251,242,148,470,106,202,353,0,204,0,0,600,300,348,343,0,244,363,200,255,100,100,170,100,100,202,402,102,0,0,377,302,6,178,32,151,0,100,0,0,0,0,100,200,300,200,500,100,603,111,300,100,500,6,0,202,600,701,611,285,556,306,2,302,100,403,3891,102,304,606,1018,300,750,1013,1332,962,659,1441,4251
2019-05-09,438,127,27,0,0,158,0,157,0,200,100,0,100,0,0,200,300,0,0,400,100,300,0,100,0,8,200,4,0,410,816,3005,101,800,215,0,95,100,100,700,1500,0,0,100,300,353,0,104,0,300,100,300,600,100,425,206,100,0,327,134,590,400,300,536,0,100,100,400,100,0,500,200,200,107,500,100,100,300,0,5,200,300,0,200,101,205,100,100,300,500,400,100,300,132,200,100,200,200,100,0,200,18,504,0,110,100,0,0,0,0,0,200,0,0,300,100,909,500,300,7,100,100,200,0,0,0,566,100,0,100,1064,226,327,443,1400,444,0,100,0,0,0,0,205,412,200,0,0,0,100,0,100,0,0,100,200,200,200,374,1,100,500,200,0,0,0,200,0,0,100,0,203,100,364,200,92,106,0,200,100,100,100,0,100,348,584,0,0,0,100,500,0,0,200,368,1,100,599,100,500,100,100,146,300,100,100,0,100,0,212,188,300,0,543,159,481,0,0,241,0,0,100,200,0,100,105,6,0,17,0,180,200,0,100,100,102,0,0,101,80,154,303,0,0,0,0,0,100,107,200,0,100,100,0,0,0,0,100,1,200,100,300,108,0,200,331,109,243,27,122,1000,100,0,100,302,200,0,100,200,400,0,300,100,226,1600,100,100,100,100,0,100,990,27,0,0,5,100,100,147,630,0,105,100,100,326,600,300,0,600,0,1,200,300,619,673,200,200,828,35,346,300,216,700,345,100,100,500,300,500,0,284,200,479,0,110,300,433,100,200,0,223,200,200,100,100,200,0,234,1000,100,352,463,100,350,105,300,100,300,200,166,101,0,100,0,500,200,200,1000,400,0,200,100,400,639,0,100,570,275,300,308,900,1566,590,881,900,167,400,790,772,1049,2587
2019-05-10,200,0,300,200,400,300,51,100,500,200,300,500,1300,100,200,100,300,0,400,85,298,8,400,2200,3474,2000,0,3677,1595,600,940,400,470,0,175,70,200,300,0,200,0,165,200,55,140,342,300,200,100,0,35,135,100,275,13,175,0,0,60,103,200,100,111,100,0,339,0,60,388,118,610,100,300,100,53,455,500,550,400,800,800,400,200,0,300,158,397,200,200,260,255,0,300,0,65,0,100,100,0,1600,1700,1210,700,66,300,21,0,435,1250,409,241,0,780,100,300,100,132,200,0,50,100,100,0,400,0,100,120,0,300,0,150,200,150,407,100,614,600,0,331,100,150,0,0,0,151,400,217,200,615,0,200,428,100,16,162,200,55,55,0,0,55,300,200,0,100,100,0,152,100,100,100,0,200,0,55,0,32,300,0,0,0,12,155,106,0,0,0,0,0,0,0,140,16,0,0,100,0,44,0,28,0,0,0,0,0,35,200,100,0,0,200,100,0,0,0,46,100,0,0,0,0,100,0,0,0,0,185,700,200,0,0,0,42,45,0,200,0,0,200,248,0,40,4225,40,0,0,100,0,35,0,107,0,100,200,0,0,100,0,326,0,300,111,74,0,40,0,140,0,0,4100,517,239,200,40,0,0,40,248,407,493,0,250,145,100,100,470,300,300,15,845,500,400,400,599,400,744,0,42,35,0,187,400,200,0,0,266,300,200,207,0,40,200,119,0,50,200,55,200,0,3,1818,300,500,0,100,100,0,115,300,440,200,107,100,925,100,100,200,50,210,300,200,0,0,0,600,0,100,0,85,0,2,300,100,0,155,811,130,0,0,221,1238,1015,2515,275,0,380,0,0,92,1300,300,73,1590,1100,400,200,100,626,1104,1602,200,700,200,100,1200,503,500,500,1350,2305
2019-05-13,0,0,0,0,100,118,311,9,180,0,50,0,125,0,0,0,0,0,100,800,0,5200,1501,4300,0,0,0,100,1912,1100,0,0,400,400,950,0,809,400,1300,0,200,1000,400,500,200,74,400,1100,1368,1800,300,242,300,0,100,100,0,123,100,200,100,800,0,500,400,200,800,900,7000,4010,1179,735,1771,874,700,606,300,983,700,111,0,0,0,100,0,100,0,0,0,100,100,100,8,100,0,100,0,200,288,12,300,0,100,0,183,0,100,202,0,100,300,222,200,0,186,100,100,100,100,12,0,100,200,0,200,0,0,100,0,0,0,100,100,100,9,291,0,200,3858,200,527,900,0,0,0,300,100,6550,0,0,0,0,0,415,558,400,510,600,1200,400,700,3532,300,502,0,0,100,0,0,302,100,0,100,0,200,100,0,0,200,2422,36,400,100,1500,200,300,400,100,100,100,200,100,100,400,1516,127,44,0,0,100,100,0,100,0,200,0,100,1000,0,100,200,100,8800,200,200,3700,1300,100,200,400,200,0,109,140,0,50,65,300,0,0,100,0,0,0,191,100,100,0,200,0,200,100,0,450,0,0,0,0,159,100,100,400,135,125,200,100,161,200,374,200,0,0,0,0,100,0,100,100,100,105,0,100,100,100,31,200,200,0,0,200,33,0,100,100,200,210,200,120,1837,424,400,0,100,0,193,362,100,0,100,3,0,0,0,0,100,218,100,0,0,3,100,0,0,0,0,0,100,0,0,0,0,0,0,0,0,0,0,100,0,0,200,100,0,200,0,400,200,0,102,0,300,100,100,500,62,100,0,0,15,1,200,0,0,0,53,208,0,755,0,1360,813,186,37,0,0,200,299,52,115,167,100,100,0,0,800,200,24,700,171,0,0,400,315,797,1174,1664,2107,1191,1367,3442
2019-05-14,100,100,0,0,325,200,14,0,0,0,100,100,0,100,300,0,1000,331,513,600,0,212,100,0,100,200,0,9,0,106,215,200,79,0,0,100,0,181,377,200,0,400,800,100,118,100,900,200,2739,1016,1973,647,1519,608,500,200,700,200,2192,400,0,3000,1147,302,0,128,720,200,0,0,0,205,100,300,0,0,26,200,0,1000,100,0,400,0,0,100,0,0,190,100,100,100,0,0,445,313,200,0,0,86,200,259,400,0,300,0,200,1900,600,0,100,201,400,328,200,200,319,0,100,0,300,442,0,0,1,100,600,100,100,100,100,200,100,300,0,412,106,200,100,0,100,1,100,200,0,400,700,0,200,0,100,0,0,0,1,100,0,100,100,0,200,0,0,0,200,0,100,0,0,0,100,640,100,12,100,0,3,93,0,454,300,0,200,0,200,0,200,0,0,139,100,0,0,200,0,0,0,100,0,0,0,232,0,0,300,300,100,305,100,500,102,0,0,0,0,100,0,0,0,0,200,100,400,104,560,200,360,0,0,300,78,0,400,0,100,0,0,0,100,0,0,61,59,12,0,300,7,31,312,30,0,0,311,0,0,0,0,0,400,0,100,100,100,0,0,0,200,100,200,0,600,0,100,0,0,0,0,200,6,100,210,101,100,0,0,47,0,13,900,54,100,100,168,1,100,3,100,200,0,0,127,600,100,100,202,0,0,300,200,2,0,100,0,0,100,0,100,0,100,428,63,604,100,1174,544,389,829,148,324,204,307,400,1,100,200,7,100,0,100,465,100,1058,0,0,100,8,0,334,204,400,200,200,0,0,0,0,15,505,400,0,0,138,0,107,1300,100,0,100,337,0,300,518,140,200,517,1300,910,150,0,200,406,717,215,304,104,1987,1260,1504,2688,5783
2019-05-15,0,0,0,70,100,0,0,171,200,0,410,400,0,0,200,0,0,0,0,0,100,200,0,100,100,0,0,100,100,400,300,0,100,200,265,357,728,309,242,200,103,200,200,700,466,400,100,173,100,0,0,100,200,300,0,100,100,0,0,200,377,100,200,0,0,6,0,200,100,102,204,200,200,500,100,205,0,441,100,0,0,100,0,113,100,0,100,0,0,134,100,100,0,100,0,241,0,200,257,800,400,0,3,500,0,0,200,200,0,900,200,100,300,100,0,200,311,0,0,0,0,0,100,0,300,10,0,100,200,0,274,0,100,0,0,200,0,0,1400,0,300,100,200,0,0,0,200,0,100,800,207,0,200,0,100,100,100,0,0,234,200,100,0,200,100,0,0,0,0,100,0,0,0,0,100,0,1900,500,0,0,0,0,0,0,0,100,200,0,100,4,0,0,200,0,300,0,0,41,0,200,0,0,0,0,0,100,100,100,0,76,200,100,0,100,0,100,0,0,100,200,124,0,300,100,100,100,200,0,100,0,100,0,0,0,100,0,100,80,0,78,0,201,900,1624,100,0,0,200,100,0,0,0,74,0,0,0,100,0,100,0,0,0,0,0,0,100,0,19,100,0,200,100,300,0,0,300,0,0,0,0,100,0,0,0,0,114,0,0,21,0,0,200,0,0,100,0,0,0,0,0,0,100,100,0,0,0,0,0,100,300,0,0,0,7,0,0,0,100,0,0,100,0,0,0,0,0,88,100,0,0,3,200,0,110,100,0,0,0,0,0,55,7,0,200,0,0,0,300,640,100,0,100,0,0,0,0,1,0,0,0,5,1300,0,0,100,0,0,74,0,0,0,0,0,0,0,100,6,200,7,0,0,300,501,500,109,176,400,624,773,1689
2019-05-16,0,0,0,0,0,300,370,0,0,0,100,0,0,400,1300,3402,656,162,600,301,0,400,100,0,0,56,0,0,0,0,100,23,200,200,0,0,300,642,100,100,0,100,3100,0,0,0,100,100,0,200,100,0,0,200,400,0,0,100,100,0,200,3,0,200,100,300,500,27,0,0,0,0,0,0,100,0,0,0,0,300,214,500,262,0,100,17,0,0,0,0,100,300,531,101,0,0,0,0,0,0,200,100,0,0,0,101,53,500,100,0,0,0,0,0,0,279,600,0,50,0,100,0,0,0,0,0,59,100,0,0,0,0,0,0,100,200,100,56,1700,100,0,100,100,0,0,1800,3945,1900,0,212,0,241,0,69,4,0,0,3,0,0,0,500,0,100,0,161,504,102,100,109,100,0,100,100,100,100,100,140,14,100,100,0,110,0,188,0,0,105,708,100,200,0,100,0,0,0,0,0,0,0,0,0,0,100,0,0,0,0,0,200,0,132,0,100,2,51,100,0,107,0,0,420,100,56,0,100,100,0,0,100,112,400,1,0,0,200,0,0,0,0,100,100,0,0,0,120,0,0,0,74,0,500,841,65,200,0,100,100,0,100,100,100,0,100,100,200,0,0,307,107,5,0,552,0,0,0,0,0,0,700,0,500,81,100,64,403,0,0,0,300,0,100,0,0,105,100,100,0,200,0,0,100,162,0,0,12,0,100,0,300,474,300,600,150,100,100,30,137,100,0,202,100,200,0,100,7,100,100,333,100,200,0,0,0,0,200,100,200,100,2,100,200,303,100,1,100,0,100,0,200,300,0,0,300,0,507,220,707,0,500,111,350,200,100,200,143,227,0,100,300,100,100,100,0,132,443,1103,1617,1102,700,1500,507,200,1100,2000,3900,4300,3520,3400,5419
2019-05-17,100,0,508,1000,0,500,1700,600,414,700,924,1000,500,25300,604,100,0,0,300,0,0,214,0,100,0,0,3,0,300,5,12,200,810,0,0,800,313,1200,847,700,500,100,200,59,7,0,0,200,300,604,0,100,0,0,123,0,320,700,113,227,100,200,400,603,109,0,0,225,600,0,0,200,0,7100,698,300,200,200,100,310,200,100,200,500,0,100,509,213,0,235,510,0,200,655,900,500,100,744,200,0,0,800,100,300,0,200,38,0,100,200,400,500,0,100,0,400,0,206,300,0,100,27,200,300,100,0,100,200,100,200,101,637,203,797,0,100,100,500,100,464,582,300,0,408,400,0,0,300,100,200,200,100,600,300,200,400,0,0,100,0,235,440,200,200,0,0,115,0,0,110,105,5128,0,100,200,0,2,208,1000,384,300,326,323,667,200,201,738,2161,600,600,100,7,3,200,100,100,261,106,225,11,100,100,100,100,0,0,300,26,0,200,692,108,500,200,0,0,100,0,606,100,0,432,0,0,201,300,200,140,210,200,130,0,11,0,0,45,122,0,100,72,0,0,0,400,0,130,100,403,300,100,0,100,100,200,0,100,0,7,0,0,100,0,0,0,0,103,10,0,0,100,0,0,0,0,400,357,0,100,100,100,0,200,0,101,100,343,300,300,12,200,100,0,0,100,0,313,215,38,0,200,100,0,200,100,707,31,100,203,0,200,0,100,0,100,200,400,0,301,200,100,212,407,403,0,0,300,400,0,0,0,200,9,100,0,100,0,952,888,100,300,74,0,0,900,0,300,100,300,100,0,200,200,200,291,100,0,300,117,402,224,200,200,400,800,900,106,400,1338,494,300,467,400,400,850,1158,661,1206,1044,1400,1632,1277,1700,1500,610,1060,100,2060,829,702,2661
2019-05-20,0,0,500,0,400,400,0,95,0,100,100,28,100,0,0,0,0,0,600,121,800,300,0,300,121,0,200,0,0,0,48,9,200,100,0,0,100,300,400,200,6,4,9,205,103,0,205,10,0,102,604,100,105,104,295,379,300,0,200,20,26,71,200,327,819,0,0,0,100,0,0,0,0,200,100,50,225,300,6,0,0,400,213,0,6,0,0,10,0,0,100,100,200,300,0,0,0,0,11,0,150,0,0,0,0,100,0,500,400,4,0,8,0,100,0,3,200,105,0,0,5,0,0,9,1700,0,100,0,0,205,47,5,0,0,0,5,3,0,0,0,0,14,0,120,40,0,0,0,0,10,5,5,104,0,0,0,0,1,0,0,0,0,205,100,5,0,125,103,200,0,0,100,0,0,0,100,0,0,0,0,0,0,0,3,5,3,106,0,0,114,100,102,0,3,0,0,5,0,0,0,0,7,100,0,21,0,9,0,0,0,100,0,0,5,0,0,0,5,0,0,0,800,0,7,100,0,100,0,0,200,100,100,0,0,0,116,600,0,0,0,0,200,100,0,23,0,100,0,0,100,0,0,0,100,200,106,0,200,200,100,0,0,0,0,0,0,0,0,100,0,0,0,0,0,0,0,0,100,0,0,10,0,100,107,0,0,0,5,0,0,9,0,0,0,0,105,13,0,0,0,0,200,5,0,8,0,0,0,0,0,0,0,0,0,0,0,0,104,12,0,0,0,0,100,0,0,100,5,5,1,100,0,100,0,0,0,300,49,0,3,0,100,103,0,0,5,100,10,0,0,0,0,0,3,0,200,0,300,0,0,0,100,116,100,100,100,111,105,100,93,200,101,0,100,100,300,205,100,300,400,300,505,504,300,0,366,5,200,375,1484
2019-05-21,250,100,100,0,200,58,500,295,0,0,0,100,100,100,100,100,296,0,0,0,100,100,100,200,200,100,100,100,100,100,400,0,564,525,300,81,0,100,0,300,100,200,900,400,0,400,0,139,147,100,0,0,100,201,200,0,100,400,100,200,0,0,0,1300,100,0,100,3,100,100,100,386,200,134,100,0,1000,3,135,200,0,0,300,2,501,0,880,100,200,0,200,600,0,700,362,0,144,0,400,100,200,0,0,0,100,100,500,400,400,0,3,402,0,0,0,263,171,0,0,100,0,0,0,0,0,0,0,0,0,500,100,0,100,100,0,0,201,100,0,0,100,0,300,0,26,0,217,100,100,101,0,0,100,110,100,3,100,0,0,0,0,100,0,400,61,0,0,200,92,209,0,0,0,100,100,0,0,0,200,100,147,0,0,0,0,0,0,200,0,0,0,0,0,0,100,0,107,163,0,0,199,0,4,0,25,0,0,0,0,200,0,0,300,100,3,104,100,101,4,4,0,0,0,8,108,0,0,0,0,0,0,100,0,116,0,0,100,0,86,0,0,11,0,0,0,0,100,50,0,300,100,0,0,0,0,0,0,0,0,0,0,0,0,0,0,0,92,0,100,0,100,0,0,201,0,0,0,0,0,0,0,0,200,200,7,20,113,18,0,118,0,0,100,0,105,511,32,200,0,0,0,100,200,100,50,50,0,0,0,100,401,200,0,0,0,0,0,200,1,100,0,0,276,100,0,0,8,37,0,12,38,200,6,0,14,0,0,0,0,300,0,0,0,100,0,0,0,0,0,0,200,0,301,100,75,100,0,200,700,255,100,274,300,1,100,1100,200,0,100,0,204,197,7,100,120,0,100,6,89,100,200,282,0,416,460,46,240,400,601,2220
2019-05-22,0,125,73,100,200,250,0,0,0,0,40,265,38,0,100,100,0,0,0,171,100,200,100,0,323,100,10,90,58,300,100,200,300,400,0,300,196,171,0,0,411,313,0,69,0,301,500,0,0,0,100,200,100,0,0,20,0,100,57,191,100,0,0,300,100,100,0,0,41,446,211,700,0,0,300,300,0,100,0,0,345,0,100,162,300,0,0,0,0,100,0,0,100,100,142,0,300,1200,300,700,600,500,474,627,795,512,0,0,57,0,304,0,5,0,0,0,132,23,0,0,0,0,200,550,1085,0,712,1000,303,200,200,0,819,807,200,500,0,300,400,200,100,184,100,300,200,100,0,139,0,0,0,100,100,0,100,0,91,0,311,302,300,97,368,0,77,100,0,0,100,0,0,443,0,0,0,100,168,0,0,0,0,7,0,11,0,0,0,0,26,40,0,0,100,0,0,0,200,0,0,0,0,100,0,0,200,0,13,113,0,0,0,0,200,0,0,100,0,0,0,0,0,14,0,0,0,0,0,0,0,0,0,0,0,0,136,218,100,0,0,0,100,0,0,0,0,0,0,0,0,44,100,250,100,100,200,200,0,0,0,0,100,0,200,226,13,28,0,0,0,0,0,0,400,300,5,108,0,485,200,0,0,0,0,0,100,37,400,100,38,2,100,37,100,212,174,500,200,37,66,0,100,0,0,100,400,0,0,0,0,0,0,0,100,0,0,335,45,400,32,0,22,200,118,100,167,0,484,0,400,326,0,100,204,0,0,100,300,0,200,105,0,0,100,500,100,100,9,0,63,188,0,300,6,2,0,223,0,385,0,8700,4200,200,0,0,0,285,166,23,26,100,0,0,100,100,100,21,801,121,698,275,335,225,400,327,100,400,1043,1300,1013,1879
2019-05-23,20,196,250,100,600,1063,0,525,1281,300,165,100,0,400,400,1074,600,624,500,200,0,700,478,200,0,200,0,300,0,100,800,700,300,2000,200,400,830,24,276,500,300,700,1500,200,900,654,300,600,1500,1597,100,100,300,1500,3409,491,300,1747,381,400,372,900,200,4130,12460,100,0,0,200,900,900,300,100,300,200,200,304,200,975,649,206,2400,1750,100,200,100,100,100,6,200,0,661,0,634,402,300,500,400,200,0,0,100,100,98,0,200,0,100,100,800,500,400,300,600,300,300,400,300,300,1100,1200,73,309,200,200,0,0,0,0,200,113,0,175,100,291,21,179,200,100,0,504,116,100,100,0,622,1059,100,394,300,104,0,392,138,200,10,900,150,200,100,0,100,0,160,100,100,100,100,84,300,400,0,900,201,700,515,300,2200,391,0,0,100,400,100,308,272,1199,300,300,518,369,557,200,500,610,400,300,300,668,200,0,0,500,538,100,0,100,200,0,300,100,100,5750,287,400,0,0,0,100,0,0,100,101,200,2247,300,200,500,987,0,200,0,0,0,0,0,100,0,0,100,0,100,113,0,0,100,0,100,300,300,0,200,0,0,0,100,1200,1100,1100,2400,1400,620,1070,200,700,200,0,1735,516,600,400,1700,900,0,1155,300,0,1732,510,4,300,485,313,100,0,200,1,400,0,0,100,100,159,925,499,100,100,200,139,306,100,200,100,0,102,4,458,0,437,100,100,200,200,300,100,100,0,437,0,0,200,100,30,1000,100,800,300,100,0,100,0,100,307,0,105,1,0,15,100,58,0,0,200,100,41,0,100,150,214,200,0,200,0,100,200,100,0,500,0,0,600,0,205,406,700,515,300,100,700,500,689,200,900,550,903,938,700,284,700,400,343,314,400,567,575,2603,688,600,1118,2377
2019-05-24,0,0,0,1000,0,0,100,4,200,0,300,0,0,100,100,0,0,200,200,0,0,200,100,100,270,310,300,0,0,32,100,200,300,313,230,858,0,200,0,200,100,100,900,800,800,0,200,506,1700,11,209,100,108,500,1000,200,100,272,346,100,400,400,332,0,100,400,100,100,0,0,100,300,0,500,300,100,0,245,0,0,0,200,0,0,49,0,100,0,100,100,100,200,876,1193,500,400,1160,149,500,0,0,200,100,0,200,0,0,0,0,0,200,0,100,710,0,916,100,100,38,200,400,600,40,0,223,0,0,0,60,200,0,100,281,0,200,200,282,0,0,0,0,10,113,0,0,104,0,0,100,29,200,200,100,100,300,0,0,113,100,204,0,0,103,0,0,0,100,8,201,0,100,100,0,1577,0,60,0,3,2300,900,400,300,400,300,200,200,0,0,0,100,0,200,0,100,1100,0,100,38,1100,17800,0,0,0,0,200,102,204,83,100,113,408,0,11,129,100,0,0,0,300,200,0,132,23,100,0,2420,4515,2200,400,100,300,400,0,600,400,300,413,104,500,6,400,100,0,200,200,0,0,0,0,100,300,0,0,100,0,342,0,0,0,0,0,100,214,6,0,303,0,0,125,300,100,32,121,103,0,300,18,0,100,147,0,204,2,200,129,110,200,0,0,0,800,300,400,400,1946,0,0,0,100,100,200,42,0,0,104,10,0,0,500,900,600,300,100,100,800,362,0,0,21,300,100,102,100,0,100,100,599,0,301,860,402,400,0,400,100,2100,0,600,0,547,100,500,800,0,2241,1507,959,74,584,518,300,500,435,200,110,200,300,303,702,676,576,609,1000,700,600,1005,827,500,100,420,600,408,602,100,912,0,1048,721,100,1400,200,1300,813,610,2500,2103,2000,1311,2802,4981
2019-05-28,400,214,210,100,400,190,300,340,100,100,100,100,500,200,317,43,100,133,100,100,0,1,0,100,100,0,0,100,0,100,300,214,300,596,100,13,300,0,240,106,6,100,113,119,300,200,307,66,1,157,200,300,100,200,534,1271,200,100,600,302,500,800,300,1100,100,200,706,201,100,200,0,245,100,2622,206,100,300,100,600,37,100,100,300,100,100,100,100,119,100,100,400,401,300,100,200,146,100,818,175,400,293,468,100,265,500,300,0,211,237,0,200,0,0,200,100,56,100,0,100,800,1,115,105,200,300,329,100,0,100,200,113,100,0,100,108,100,0,200,0,0,300,100,200,100,200,100,200,0,500,325,200,447,100,0,100,0,0,100,0,100,0,7,0,200,0,0,0,0,100,100,100,0,690,100,300,300,187,6,0,100,104,300,201,400,0,0,100,0,0,100,0,0,100,0,0,0,200,0,100,100,0,0,0,100,36,100,100,144,0,0,18,0,474,300,214,0,300,0,202,97,0,0,200,100,100,9,0,15,100,25,0,100,624,0,0,0,402,500,0,100,0,267,100,100,153,0,428,100,0,0,200,0,0,0,0,0,200,0,103,100,82,2,316,0,100,111,100,200,172,100,100,0,217,0,400,0,0,100,0,0,100,0,0,200,100,405,173,400,100,0,0,0,204,200,100,100,0,208,0,100,459,200,100,200,238,204,0,300,8,100,100,0,104,300,100,0,100,102,239,78,0,100,0,220,200,0,0,200,0,0,390,0,100,294,100,65,71,200,100,306,576,419,449,200,116,100,0,0,0,67,10,0,200,100,0,100,0,101,600,400,636,130,400,413,711,200,100,600,204,188,1494,462,700,100,100,196,500,412,695,0,700,400,300,404,149,449,730,900,1209,1404
2019-05-29,0,310,200,403,365,100,650,100,474,400,610,200,300,200,400,300,200,624,200,400,400,0,799,800,550,200,100,200,500,200,650,700,700,509,519,400,0,0,200,454,2,200,200,301,200,0,0,102,100,135,53,700,400,0,400,200,0,100,300,200,500,28,0,0,100,100,214,212,364,0,174,300,400,200,200,601,600,649,352,316,484,0,1,0,117,333,0,0,100,10,819,300,734,600,600,200,100,750,824,100,0,31,0,27,0,0,33,200,70,100,336,130,100,0,100,396,100,0,0,0,415,100,0,100,55,700,257,0,0,100,200,425,0,100,200,500,18,100,207,200,200,200,450,100,0,200,0,0,0,0,97,200,100,101,0,106,300,200,0,0,100,400,700,400,200,0,300,100,0,501,500,100,100,0,15,0,24,275,0,100,0,0,0,1096,0,101,0,200,100,411,1000,0,0,0,0,500,100,0,0,200,0,0,200,202,300,100,0,65,400,100,138,120,0,0,0,0,0,200,245,262,100,114,0,300,100,100,400,0,100,0,200,0,0,100,100,0,0,0,200,0,200,200,200,0,200,100,0,100,100,0,36,100,0,100,100,72,500,16,100,0,0,0,0,0,0,0,0,100,0,0,68,0,13,100,0,17,0,50,37,32,200,100,100,100,100,28,0,0,0,0,200,100,151,500,0,155,31,305,200,4,0,100,100,0,243,377,0,862,1134,300,301,11,116,500,100,200,0,0,0,4,4,172,300,3,0,70,195,701,504,1385,400,800,227,208,26,53,71,1,101,100,100,0,100,0,0,100,200,700,500,303,400,100,300,400,500,500,303,1700,100,186,450,300,100,700,700,300,100,300,100,200,24,200,190,401,200,300,336,200,3,200,200,1636,885,521,934,909,1074,820,300,1902
2019-05-30,0,0,800,300,0,1800,100,400,359,0,0,200,100,14,528,200,550,0,100,100,500,200,29150,1862,200,1100,1,1603,200,300,169,400,600,400,0,500,0,200,300,500,103,100,600,0,600,300,417,400,340,200,0,600,100,400,156,300,400,500,100,450,300,100,500,100,405,312,0,1200,700,200,200,100,400,105,0,246,100,800,60,160,323,100,514,1346,200,602,705,1434,886,1100,590,840,800,300,1743,400,505,1900,400,500,300,509,502,500,700,521,1700,419,300,400,1156,100,100,0,200,5146,400,700,0,660,10,1153,527,500,100,470,100,300,800,200,700,1000,300,300,100,200,100,112,401,200,110,450,400,400,300,700,400,900,700,1217,1000,0,100,1100,600,241,500,1300,274,300,139,400,300,0,200,600,343,0,546,900,400,300,700,1,0,120,896,122,0,1337,100,777,112,0,100,200,400,310,200,900,623,100,0,100,400,200,400,802,2600,0,798,900,100,1000,200,200,300,822,100,210,2000,499,0,0,802,180,500,1,701,400,405,1902,601,200,22300,347,700,400,200,0,300,100,200,101,200,500,200,400,700,3222,3000,800,100,1300,644,100,567,500,500,402,301,1600,100,500,100,451,611,677,100,300,2500,401,300,400,800,1400,800,900,100,300,1200,200,400,642,600,38,600,300,0,200,500,400,0,500,202,0,400,500,2000,722,1200,1001,200,402,1938,500,700,100,200,140,0,700,400,100,300,0,0,600,100,100,200,200,400,200,401,403,1000,576,201,100,500,400,60,400,401,0,502,200,0,400,300,509,300,614,200,300,1317,800,506,114,100,317,278,400,100,300,500,809,200,1150,213,0,300,800,8677,300,200,801,1384,2114,502,800,500,1000,390,1715,1800,627,700,600,631,1683,1613,1930,1200,6318,1616,1003,1000,1968,1805,2377,1988,1100,3872,3185,6242,7400,5228,5159
2019-05-31,503,228,3816,1400,400,228,100,1402,3300,300,100,400,600,1180,200,700,500,200,1000,800,223,100,0,0,500,153,2202,100,300,1117,3340,2200,300,560,300,300,200,332,200,100,400,503,400,100,200,210,100,0,85,115,124,437,0,300,550,800,100,289,200,200,200,700,100,300,400,200,905,400,174,500,200,486,4400,4037,6107,679,300,400,200,0,600,200,1929,200,413,200,200,803,128,500,400,28,500,200,300,200,0,909,370,0,400,0,100,1,121,737,102,0,0,500,200,1000,400,0,100,0,0,470,448,300,600,107,260,300,100,100,200,100,100,0,350,0,100,1100,381,100,200,0,0,193,600,200,200,0,100,100,500,0,100,9,500,601,824,300,0,100,1009,200,100,100,14,100,228,474,447,400,100,0,100,0,0,200,300,1400,498,600,400,300,1411,0,1312,110,200,0,100,10,200,0,210,200,300,328,0,0,200,14,0,100,762,455,0,0,100,300,0,300,109,200,200,100,100,0,100,0,102,100,100,100,253,200,0,100,887,200,200,300,0,100,0,0,200,400,222,0,200,326,0,0,306,300,0,0,100,100,400,100,100,100,200,0,0,100,100,101,0,0,100,300,200,0,200,200,0,100,0,200,200,100,0,0,200,100,0,0,237,600,116,0,100,200,100,100,300,0,409,1100,3357,463,361,0,731,400,300,200,300,511,328,100,264,140,300,100,0,94,200,301,280,111,600,100,300,1322,200,300,1300,100,400,100,404,1000,514,300,100,100,2100,800,100,500,200,0,100,300,100,100,100,400,600,200,300,900,126,400,300,400,300,200,400,100,100,300,237,0,327,122,100,306,200,194,200,104,0,700,300,200,500,403,250,100,100,100,100,129,600,600,500,708,500,754,2746,700,1490,700,501,500,1304,1340,1625,2500,4270,4836
