,09:30,09:31,09:32,09:33,09:34,09:35,09:36,09:37,09:38,09:39,09:40,09:41,09:42,09:43,09:44,09:45,09:46,09:47,09:48,09:49,09:50,09:51,09:52,09:53,09:54,09:55,09:56,09:57,09:58,09:59,10:00,10:01,10:02,10:03,10:04,10:05,10:06,10:07,10:08,10:09,10:10,10:11,10:12,10:13,10:14,10:15,10:16,10:17,10:18,10:19,10:20,10:21,10:22,10:23,10:24,10:25,10:26,10:27,10:28,10:29,10:30,10:31,10:32,10:33,10:34,10:35,10:36,10:37,10:38,10:39,10:40,10:41,10:42,10:43,10:44,10:45,10:46,10:47,10:48,10:49,10:50,10:51,10:52,10:53,10:54,10:55,10:56,10:57,10:58,10:59,11:00,11:01,11:02,11:03,11:04,11:05,11:06,11:07,11:08,11:09,11:10,11:11,11:12,11:13,11:14,11:15,11:16,11:17,11:18,11:19,11:20,11:21,11:22,11:23,11:24,11:25,11:26,11:27,11:28,11:29,11:30,11:31,11:32,11:33,11:34,11:35,11:36,11:37,11:38,11:39,11:40,11:41,11:42,11:43,11:44,11:45,11:46,11:47,11:48,11:49,11:50,11:51,11:52,11:53,11:54,11:55,11:56,11:57,11:58,11:59,12:00,12:01,12:02,12:03,12:04,12:05,12:06,12:07,12:08,12:09,12:10,12:11,12:12,12:13,12:14,12:15,12:16,12:17,12:18,12:19,12:20,12:21,12:22,12:23,12:24,12:25,12:26,12:27,12:28,12:29,12:30,12:31,12:32,12:33,12:34,12:35,12:36,12:37,12:38,12:39,12:40,12:41,12:42,12:43,12:44,12:45,12:46,12:47,12:48,12:49,12:50,12:51,12:52,12:53,12:54,12:55,12:56,12:57,12:58,12:59,13:00,13:01,13:02,13:03,13:04,13:05,13:06,13:07,13:08,13:09,13:10,13:11,13:12,13:13,13:14,13:15,13:16,13:17,13:18,13:19,13:20,13:21,13:22,13:23,13:24,13:25,13:26,13:27,13:28,13:29,13:30,13:31,13:32,13:33,13:34,13:35,13:36,13:37,13:38,13:39,13:40,13:41,13:42,13:43,13:44,13:45,13:46,13:47,13:48,13:49,13:50,13:51,13:52,13:53,13:54,13:55,13:56,13:57,13:58,13:59,14:00,14:01,14:02,14:03,14:04,14:05,14:06,14:07,14:08,14:09,14:10,14:11,14:12,14:13,14:14,14:15,14:16,14:17,14:18,14:19,14:20,14:21,14:22,14:23,14:24,14:25,14:26,14:27,14:28,14:29,14:30,14:31,14:32,14:33,14:34,14:35,14:36,14:37,14:38,14:39,14:40,14:41,14:42,14:43,14:44,14:45,14:46,14:47,14:48,14:49,14:50,14:51,14:52,14:53,14:54,14:55,14:56,14:57,14:58,14:59,15:00,15:01,15:02,15:03,15:04,15:05,15:06,15:07,15:08,15:09,15:10,15:11,15:12,15:13,15:14,15:15,15:16,15:17,15:18,15:19,15:20,15:21,15:22,15:23,15:24,15:25,15:26,15:27,15:28,15:29,15:30,15:31,15:32,15:33,15:34,15:35,15:36,15:37,15:38,15:39,15:40,15:41,15:42,15:43,15:44,15:45,15:46,15:47,15:48,15:49,15:50,15:51,15:52,15:53,15:54,15:55,15:56,15:57,15:58,15:59
2019-04-01,0.0,0.0,-0.00333895025900281,-0.004587155963302778,-0.00237159083817022,-0.0025900268364227406,0.0009153508498199864,0.00013522228463241402,-0.0017474879860201623,0.0013418211321224768,0.0005824959953400048,0.0007073165657700164,,,-0.0015394537019701921,,-0.004243899394620246,-0.0035885913998626854,-0.0035157794004452773,,-0.003307745116395307,,2.080342840495266e-05,0.000800931993592525,0.0009569577066300396,-0.0007073165657701642,-0.0011233851338701042,-0.0020595394120951913,,-0.002995693690320278,-0.001705881129210109,,,0.00028084628346752605,0.00298529197611758,0.003297343402192609,,0.0028292662630800655,0.0012690091327050685,,-0.00013522228463256182,-0.0006032994237451053,,0.0012690091327050685,,0.0005408891385299516,,-0.00034325656868253185,,-0.0007177182799725666,-6.24102852150058e-05,-3.12051426075029e-05,0.0003328548544799816,-0.00029124799767007634,-0.00029124799767007634,-0.0007593251367826198,,,,-8.321371362010628e-05,0.0001248205704300116,,,,,-0.00029124799767007634,,0.0018931119848549787,,,0.0016850777008050085,,0.0012690091327050685,0.0009569577066300396,0.001112983419667554,,0.0014458382741475357,0.0017890948428300676,0.0017890948428300676,0.0033181468305975618,,0.0028604714056875685,,0.0022051634109300075,0.0021011462689050965,0.002257171981942611,0.003505377686242579,0.0043895233934552105,,,,,0.005003224531402718,0.006781917660030383,0.006157814807880325,0.004961617674592665,0.004680771391125139,0.004077471967380181,0.0035573862572551825,0.0037654205413051524,0.003505377686242579,,0.004909609103580209,0.0042855062514301516,,0.003973454825355122,0.003973454825355122,,0.00512804510183273,,0.003921446254342667,,,,0.0022051634109300075,0.0021011462689050965,,,,0.0027564542636626574,0.002329983981360019,0.0024131976949801257,0.0015810605587800975,0.000832137136200028,0.0014770434167550386,0.0016746759866026063,0.0012690091327050685,,0.0001248205704300116,,,,,,,,-0.0016434708439951034,-0.0017474879860201623,,,-0.0008113337077950753,,-0.00039526513969513524,,0.001425034845742583,,0.0007489234225799218,,0.002225966839335108,,0.0023091805529550664,0.0009569577066300396,,,,0.001425034845742583,,,,,0.0005408891385299516,0.0009569577066300396,,,,,,,,0.0010609748486549507,0.0015810605587800975,0.0022051634109300075,,,0.003536582828850082,0.003297343402192609,,0.0028292662630800655,,0.0032453348311801537,,0.0037654205413051524,,,0.0034533691152301236,,,,0.0030373005471301833,0.004077471967380181,0.003973454825355122,0.004077471967380181,0.0037654205413051524,0.0036614033992800935,0.003973454825355122,,0.0043895233934552105,,,0.0047639851047452456,,,,,,,,,,0.006105806236867722,0.006043395951652716,,,0.006157814807880325,0.006365849091930296,,0.005606523955147823,0.005637729097755327,0.005814558239197794,,,,,,,,0.006157814807880325,0.0059497805238302075,0.005845763381805296,0.006053797665855266,0.005741746239780237,0.0052216605296552384,,0.006105806236867722,,0.005637729097755327,0.005845763381805296,,0.006209823378892781,0.006261831949905237,0.006573883375980265,,0.007093969086105265,,,0.00813414050635541,,0.006573883375980265,,,0.007197986228130324,,,0.006781917660030383,,0.006781917660030383,0.007093969086105265,,0.0073020033701553825,0.00770767022405292,,0.007822089080280382,0.008633422788075457,0.008612619359670356,,0.00813414050635541,,,,0.00803012336433035,0.00834217479040538,0.008446191932430439,0.008290166219392926,0.0073020033701553825,0.007406020512180293,0.007510037654205352,0.007718071938255322,,0.00803012336433035,0.008924670785745385,0.009101499927188,0.009267927354427916,0.009694397636730407,0.009195115355010509,0.009694397636730407,0.009767209636147963,0.009954440491792982,0.010006449062805437,0.010193679918450453,0.010110466204830495,,,,0.00886226050053038,,,0.0073020033701553825,,0.006989951944080353,0.007354011941167838,0.007270798227547879,0.007614054796230411,0.00803012336433035,,,0.008487798789240344,,0.009174311926605408,,0.009070294784580497,0.008966277642555438,0.00834217479040538,,0.00768686679564782,0.007562046225217808,0.007718071938255322,0.007614054796230411,0.007093969086105265,0.007197986228130324,,0.007718071938255322,,,0.006989951944080353,0.006989951944080353,,0.007614054796230411,,0.007822089080280382,0.007770080509267926,0.00803012336433035,,,0.00792610622230544,0.00803012336433035,0.007718071938255322,,,0.007114772514510365,,0.007197986228130324,0.006989951944080353,0.005866566810210249,0.006001789094842811,0.0064698662339553546,0.006199421664690231,0.006365849091930296,0.007333208512762885,0.007822089080280382,0.007718071938255322,0.007312405084357785,0.008082131935342955,0.00813414050635541,0.007936507936507842,0.008529405646050398,0.008279764505190374,0.00672990908901778,0.007000353658282904,0.007249994799142779,0.007270798227547879,0.006885934802055294,,0.006896336516257845,0.006802721088435336,0.0063866525203352485,0.006199421664690231,0.006802721088435336,0.007749277080862825,0.0078012856518754285,0.006885934802055294,0.0069483450872703,0.007562046225217808,0.007998918221722849,0.008446191932430439,0.009018286213567895,0.00842538850402534,0.008009319935925399,0.00792610622230544,0.008310969647797877,0.008238157648380469,0.008362978218810333,0.00803012336433035,0.009059893070377948,0.008550209074455351,0.008519003931847848,0.008799850215315373,0.009205517069212911,0.009413551353263029,0.009340739353845473,0.008831055357922876
2019-04-02,0.0,2.0571264001268617e-05,,0.0007919936640506689,,-0.0013371321600855297,-0.0010594200960677455,,,0.002653693056169791,0.0016662723841067047,-0.00034971148802244353,-0.0016559867521059972,-0.0013577034240869444,-0.00018514137601185606,,-0.0024582660481573737,-0.0021805539841395893,-0.0020982689281342226,-0.002705121216173182,-0.0032194028162060664,-0.003661684992234292,-0.0032194028162060664,-0.0026948355841724743,-0.0026228361601678147,-0.0017691287041131938,-0.0009977063040637936,0.0009257068800592803,0.0011211338880716976,0.0008948499840573044,,,0.004031967744258004,,,0.0045462493442910345,0.004237680384271275,,0.004340536704277764,,,,,,,0.003209117184205359,,,,0.0034662579842218745,0.0037748269442416348,0.004916532096314601,,,0.004484535552287083,0.0028079775361796707,,0.0011519907840736737,,,0.002026269504129709,,,0.0022114108801415656,0.0028491200641823544,0.0029519763841889895,,,,-0.0007508511360479855,,-0.001162276416074381,-0.00044228217602822537,,,-0.0020365551361302705,-0.002201125248140858,,-0.0019131275521223664,,-0.0028079775361796707,,-0.0036308280962323155,-0.002910833856186306,-0.0026022648961665463,-0.003939397056252076,-0.005276529216337752,-0.005698240128364709,-0.005327957376340996,-0.005667383232362732,-0.005687954496364001,,-0.007981650432510787,-0.007333655616469291,,-0.006665089536426526,-0.006510805056416646,-0.007333655616469291,-0.005893667136377126,-0.007230799296462802,-0.006891373440441066,-0.006623947008423989,-0.006243378624399569,-0.007169085504458849,-0.009812492928627932,-0.010316488896660257,-0.010007919936640497,-0.007642224576489051,-0.007385083776472682,-0.007539368256482562,-0.007045657920450946,-0.0069222303364430415,,-0.006099379776390397,-0.005533670016354121,-0.0058422389763738815,,-0.006233092992398862,,,,-0.005173672896331116,-0.006202236096396886,-0.006798802752435137,-0.005276529216337752,,,-0.00632566368040479,-0.007642224576489051,,-0.007025086656449531,,-0.005893667136377126,,-0.005070816576324481,,-0.00601709472038503,-0.005482241856350876,-0.005286814848338313,-0.006150807936393641,,,-0.004042253376258712,-0.00406282464025998,-0.0036308280962323155,,-0.004042253376258712,-0.0038365407362455865,,-0.0031679746562026756,,,-0.0036308280962323155,,,-0.0036308280962323155,-0.003116546496199431,-0.0032194028162060664,-0.003270830976209311,-0.003425115456219191,-0.0044228217602829845,,,,,-0.005070816576324481,-0.005687954496364001,-0.005996523456383761,-0.0058422389763738815,,,-0.005893667136377126,-0.005379385536344241,,-0.006047951616387006,,,-0.007374798144471974,-0.008465075136541695,,-0.007539368256482562,-0.00802279296051347,,-0.008187363072523912,,,-0.006716517696429917,,,,-0.007333655616469291,,,,,-0.007282227456466046,,,,,-0.00795079353650881,-0.008310790656531815,,,-0.007333655616469291,,-0.007539368256482562,-0.007642224576489051,,,,,-0.007539368256482562,,-0.008362218816535207,,,,,,-0.005790810816370636,-0.006716517696429917,,,,,-0.006767945856433161,-0.0070045153924482625,,,,,,,,-0.006510805056416646,,,,,-0.007539368256482562,-0.007899365376505567,-0.008249076864527864,,,,-0.007127942976456166,,,,,,-0.007745080896495686,-0.007642224576489051,,,-0.008650216512553552,-0.009401067648601684,,,-0.010141633152649107,,-0.009185069376587852,,-0.00905135616057924,-0.007847937216502322,,,-0.008979356736574727,-0.009185069376587852,-0.008732501568558919,,,-0.00795079353650881,,-0.007127942976456166,-0.007436511936475926,,,,-0.00795079353650881,,-0.007333655616469291,-0.008465075136541695,,-0.009030784896577972,-0.008979356736574727,,-0.009185069376587852,-0.009339353856597732,-0.00990506361663386,,-0.010213632576653621,-0.010933626816699777,-0.010316488896660257,,,,-0.009545066496610856,,,,,,,-0.009390782016600976,,-0.009473067072606197,-0.00990506361663386,-0.009606780288614808,-0.009185069376587852,-0.009082213056581216,-0.009287925696594488,-0.009154212480585875,-0.009257068800592511,-0.009185069376587852,-0.008979356736574727,-0.009308496960595755,-0.01005934809664374,-0.010162204416650377,-0.010419345216666893,,-0.010419345216666893,-0.011550764736739298,,-0.012167902656778671,-0.011900476224761595,,-0.010419345216666893,-0.010758771072688482,-0.010532487168674089,-0.009894777984633299,-0.009833064192629347,-0.009637637184616785,-0.009565637760612125,-0.008938214208572043,-0.009483352704606905,,-0.010049062464643179,-0.010481059008670844,-0.010223918208654328,-0.010079919360645156,-0.01028563200065828,-0.010110776256647133,-0.009215926272589827,-0.00944221017660422,-0.010110776256647133,-0.010110776256647133,-0.009359925120599,-0.00958620902461354,-0.010110776256647133,-0.010347345792662232,,-0.010913055552698362,-0.01005934809664374,-0.010223918208654328,-0.011129053824712194,-0.010553058432675358,-0.011581621632741273,,-0.010470773376670137,-0.010625057856680017,,,-0.010182775680651646,,-0.009853635456630616,,-0.008773644096561456,-0.008866214784567384,,-0.008979356736574727,-0.008670787776554967,-0.009287925696594488,-0.009678779712619467,-0.009956491776637252,-0.009339353856597732,-0.009185069376587852,-0.00905135616057924,-0.009339353856597732,-0.009452495808604928,-0.009545066496610856,-0.009791921664626665,-0.009956491776637252,-0.009565637760612125,-0.0101313475206484,-0.010666200384682554,-0.010882198656696386,-0.010779342336689897,-0.011519907840737321
2019-04-03,0.0,-0.00048775425487751186,,-0.002044416770444196,,-0.0021689497716895307,-0.0008302200083021824,-0.00020755500207550874,,-0.002905770029057712,-0.003580323785803226,-0.0035491905354918924,-0.002905770029057712,-0.0022831050228310384,-0.0023349937733498785,-0.0018679950186798735,-0.001629306766293031,-0.0013906185139061886,-0.0024699045246990405,-0.0025529265255292144,-0.001847239518472367,-0.002905770029057712,,,-0.0042029887920298995,-0.003985056039850564,-0.0038709007887090564,-0.005344541303445419,-0.005292652552926579,-0.005811540058115424,-0.006828559568285608,-0.007938978829389794,-0.007783312577833126,-0.008094645080946462,-0.009474885844748824,-0.008955998339559979,,-0.00933997509339981,-0.007804068078040632,-0.006953092569530943,-0.006050228310502267,-0.005240763802407591,-0.005240763802407591,,-0.005707762557077596,-0.005500207555002088,-0.003891656288916563,-0.0026982150269822033,-0.0024906600249065473,,-0.0023661270236612123,-0.0031652137816520613,-0.003424657534246558,-0.0032689912826898895,-0.003185969281859715,-0.002615193026151882,-0.0036633457866334,-0.004711498547114918,,,-0.00726442507264428,-0.007575757575757617,-0.008717310087173136,-0.008821087588210817,,,-0.008260689082606958,-0.007918223329182288,-0.007855956828559621,-0.0073993358239932945,-0.007430469074304628,-0.004358655043586568,,-0.004358655043586568,,-0.00513698630136991,-0.003217102532171049,-0.0036322125363220663,-0.003943545039435403,,-0.0033727687837277172,,-0.0023868825238688666,-0.0016500622665006851,-0.0019717725197177017,-0.0007264425072643543,,-0.002801992528019884,-0.002594437525944375,-0.0030614362806143805,-0.0037567455375674013,-0.002801992528019884,-0.0022312162723121982,-0.001349107513491028,,-0.0009443752594436901,,,,,,-0.003995433789954391,-0.005085097550850922,-0.006122872561228761,,-0.0062577833125777756,,-0.0067455375674554344,,-0.006537982565379779,-0.008302200083021972,,-0.008955998339559979,,-0.009132420091324154,-0.008997509339975139,-0.009796596097965989,-0.010305105853051007,-0.009236197592361982,-0.009910751349107495,-0.010128684101286832,-0.009651307596513,-0.00933997509339981,,-0.0103777501037775,-0.009651307596513,-0.010689082606890839,,-0.011207970112079683,-0.011207970112079683,,,-0.011726857617268528,-0.012432544624325376,-0.011986301369863025,-0.011892901618929025,,-0.012764632627646367,,-0.012038190120381867,,-0.010896637608966347,-0.0103777501037775,-0.010481527604815329,-0.01032586135325866,-0.010170195101701992,,-0.008872976338729804,-0.009236197592361982,-0.01053341635533417,-0.009827729348277322,-0.009412619344126157,-0.009806973848069668,-0.009288086342880822,-0.009236197592361982,-0.008976753839767485,-0.009080531340805314,-0.008665421336654149,,-0.008084267330842635,-0.007357824823578281,-0.008623910336239136,-0.010087173100871672,-0.010637193856371997,-0.010689082606890839,-0.009858862598588656,-0.010388127853881329,-0.00933997509339981,-0.009858862598588656,-0.009962640099626337,-0.009723951847239494,-0.010180572851805672,-0.010056039850560337,-0.010170195101701992,-0.009547530095475319,-0.00935035284350349,-0.0102843503528435,-0.009682440846824333,-0.010356994603569994,-0.011197592361975857,-0.010855126608551334,-0.010554171855541677,-0.010606060606060664,-0.010761726857617332,-0.012588210875882045,-0.012899543378995381,-0.01245330012453303,,-0.012764632627646367,-0.012525944375259378,-0.012090078870900854,-0.0120693233706932,-0.011934412619344185,-0.013117476131174718,-0.013698630136986231,-0.014985471149854738,-0.015514736405147412,,-0.015172270651722742,-0.015535491905354918,-0.015732669157326747,-0.015141137401411407,-0.01577418015774176,-0.015857202158572083,-0.016396845163968433,-0.01691573266915728,-0.01650062266500626,,-0.01691573266915728,-0.01784973017849729,,,-0.017227065172270618,,,-0.01691573266915728,,-0.01725819842258195,,-0.017434620174346126,,,-0.017434620174346126,,,-0.018368617683686136,,-0.018814860938148634,-0.019198837691988317,,-0.018679950186799472,-0.018679950186799472,-0.018264840182648456,-0.018264840182648456,-0.018368617683686136,,,-0.018576172685761793,-0.018576172685761793,-0.018659194686591964,-0.018524283935242802,,-0.019095060190950638,,,-0.019095060190950638,,,-0.019198837691988317,,-0.01992528019925282,,-0.02076587795765883,-0.020786633457866337,-0.020361145703611493,-0.020630967206309667,-0.020755500207555,-0.020952677459526833,-0.02068285595682851,-0.021170610211706166,-0.021637608966376023,-0.02161685346616852,,-0.021824408468244027,-0.021793275217932694,-0.02200083022000835,,-0.02319427148194271,-0.023619759236197555,-0.02314238273142387,-0.02314238273142387,-0.02338107098381071,-0.023931091739310892,-0.024875466998754727,-0.02438771274387707,-0.024491490244914895,-0.024439601494396057,,-0.025581154005811575,,,-0.02542548775425491,,,,,-0.02625570776255709,,-0.02635948526359492,-0.026567040265670427,-0.02625570776255709,-0.02490660024906606,-0.024885844748858407,-0.024491490244914895,-0.024699045246990407,-0.02388958073889573,,,,-0.02210460772104603,-0.022727272727272704,-0.022415940224159367,,-0.02220838522208386,-0.022332918223329192,-0.022519717725197196,,,-0.02152345371523452,-0.021897052718970522,-0.022156496471565017,-0.021554586965545852,-0.021897052718970522,-0.022768783727687866,-0.022882938978829374,-0.022405562474055687,-0.022467828974678354,-0.02243669572436702,-0.022322540473225367,-0.02243669572436702,-0.022364051473640525,,,-0.02034039020340384,-0.02034039020340384,-0.020734744707347496,-0.02076587795765883,-0.020755500207555,,-0.02085927770859283,-0.021585720215857186,-0.02106683271066834,-0.020734744707347496,-0.02085927770859283,-0.020797011207970163,-0.020620589456205842,-0.020848899958489004,-0.020963055209630512,-0.021170610211706166,-0.021886674968866694,-0.02220838522208386,-0.022156496471565017,-0.0229867164798672,-0.0227999169779992,-0.022322540473225367,-0.022768783727687866,-0.022831050228310532,-0.02243669572436702,-0.022083852220838522,-0.021824408468244027,-0.022415940224159367,-0.02324616023246155,-0.021793275217932694,-0.02293482772934821,-0.023339559983395552,-0.02220838522208386,-0.021585720215857186,,-0.021222498962225007,-0.020236612702366156,-0.020693233706932334,-0.020994188459941845,-0.020620589456205842,-0.0209215442092155,-0.020547945205479493,-0.021139476961394833,-0.021087588210875845,-0.020651722706517175,-0.021430053964300515,,,-0.021378165213781677,-0.020797011207970163,-0.02085927770859283,-0.020599833955998334,-0.020755500207555,-0.02102532171025318,,-0.021398920713989182,,-0.02106683271066834,-0.02166874221668736,-0.022270651722706526,-0.02364051473640521,-0.024346201743462054,-0.024356579493565737,-0.024533001245330057,-0.025093399750934064,-0.025643420506434242,-0.02580946450809459
2019-04-04,,,-94.705,-94.91,-95.11,-95.315,-95.27,,-95.297,-95.37,-95.33,-95.326,-95.208,,-95.16,,,-94.775,-94.813,-94.6,-94.628,-94.8,-94.861,-94.978,-94.92,,,-94.635,-94.635,-94.65,-94.601,-94.599,-94.58,-94.62,-94.577,-94.542,-94.564,-94.566,-94.524,-94.515,-94.46,-94.46,-94.54,-94.552,-94.49,,-94.46,,,,-94.53,-94.57,-94.664,-94.632,-94.627,-94.59,-94.505,,,,,,-94.258,-94.23,-94.2,-94.131,,-94.09,-94.014,,-93.975,-93.95,-93.96,-94.003,-94.0,-94.265,-94.285,,-94.26,-94.289,,-94.27,-94.262,-94.206,,-94.166,,,-94.079,-94.09,-94.06,-94.017,-94.12,-94.111,-94.159,-94.16,-94.23,-94.301,-94.266,-94.266,-94.215,-94.322,-94.381,-94.405,-94.41,-94.37,-94.273,-94.212,-94.215,-94.197,-94.043,-94.045,-94.015,,-94.085,-94.285,-94.289,-94.291,-94.379,-94.358,-94.325,-94.23,-94.205,-94.31,,-94.31,-94.412,-94.579,,-94.655,-94.623,-94.61,-94.679,-94.67,-94.598,-94.71,-94.71,-94.739,-94.734,-94.691,-94.649,,-94.692,-94.733,-94.702,-94.706,-94.705,-94.669,-94.71,-94.727,-94.774,-94.755,-94.712,-94.722,-94.72,-94.716,-94.701,-94.701,,,-94.615,-94.557,-94.533,,-94.42,-94.345,-94.29,-94.21,-94.2,-94.341,-94.388,-94.466,,-94.63,-94.58,-94.49,-94.477,-94.525,-94.53,,,-94.57,,-94.46,-94.41,-94.56,-94.53,-94.49,-94.483,-94.46,-94.49,-94.46,-94.43,,-94.57,,,-94.49,,-94.52,-94.59,-94.59,,-94.692,-94.65,-94.703,-94.68,-94.66,,-94.59,,,-94.55,,-94.402,-94.51,,,,,-94.493,,,,,,,-94.475,-94.56,-94.58,-94.561,-94.552,,-94.571,-94.59,,,-94.546,-94.56,-94.553,-94.586,-94.564,,,-94.626,,-94.69,-94.69,-94.64,,,,-94.605,-94.585,-94.594,,,-94.66,-94.6,-94.497,-94.457,-94.585,-94.574,-94.648,-94.753,-94.64,-94.617,-94.689,-94.65,-94.635,-94.612,-94.599,-94.604,-94.603,-94.6,,-94.607,-94.63,-94.642,-94.733,-94.709,-94.663,-94.665,-94.672,-94.68,-94.662,-94.693,-94.665,-94.65,-94.671,-94.659,,-94.659,-94.632,,-94.522,,-94.566,-94.46,-94.5,-94.48,-94.483,-94.6,-94.66,-94.64,-94.69,-94.72,,,-94.647,-94.66,-94.635,-94.605,-94.555,-94.505,,-94.481,-94.43,-94.4,,,,-94.314,-94.385,,-94.408,-94.405,-94.41,,,-94.47,-94.43,,,,-94.4,-94.45,-94.42,-94.338,-94.38,-94.38,,,,-94.43,,,,-94.51,-94.51,,,-94.425,,,,-94.464,-94.422,-94.436,-94.4,-94.437,-94.4,-94.43,-94.461,-94.5,-94.496,-94.507,-94.534,-94.558,-94.529,-94.523,-94.541,-94.52,,-94.473,-94.529,-94.604,-94.64,-94.625,-94.586,-94.607,-94.628,-94.592,-94.647,-94.567,-94.6,-94.6,-94.615,-94.587,-94.592
2019-04-05,,-95.43,,-95.73,,-95.52,-95.707,-95.67,-95.63,-95.612,-95.55,,-95.69,-95.65,-95.669,,,-96.06,,-96.309,-96.375,,-96.358,-96.267,-96.35,-96.197,-96.253,-96.37,-96.39,-96.502,-96.6,,-96.693,-96.672,,-96.95,-97.017,-97.1,-97.19,-97.254,-97.203,-97.23,-97.259,,,-97.358,-97.332,-97.36,-97.37,-97.423,,-97.535,-97.581,-97.588,-97.541,-97.6,-97.618,-97.574,-97.427,-97.44,-97.436,-97.418,-97.69,-97.578,-97.599,-97.579,-97.613,-97.666,-97.62,-97.62,-97.584,,-97.63,-97.64,-97.68,-97.71,-97.765,-97.801,-97.88,-97.85,-97.883,-97.932,-97.972,-98.05,-98.036,-98.083,-98.116,-98.021,-98.005,-98.053,-97.975,-98.078,-98.12,-98.072,,-97.923,-98.037,,-98.17,-98.172,-98.147,-98.23,-98.27,-98.384,-98.432,-98.42,-98.412,,-98.435,-98.43,-98.64,-98.632,-98.567,-98.573,-98.53,-98.405,-98.317,-98.104,-98.114,-98.13,-98.04,-97.96,-97.922,-97.878,-97.775,-97.81,-97.96,-97.975,-97.935,-97.89,-97.975,-98.002,,,,,,,,-98.08,,,-98.09,,,-98.25,-98.215,,,,,-98.177,,,-98.095,-98.07,-98.06,,-98.11,-98.11,,-98.15,-98.17,-98.18,-98.15,,,,-98.198,-98.18,-98.264,-98.26,-98.233,-98.19,,-98.3,-98.33,,-98.34,-98.37,,,,,,,,-98.268,-98.205,-98.155,-98.19,-98.195,,-98.21,-98.27,,-98.437,,-98.42,-98.408,,,-98.57,,-98.62,-98.61,-98.703,-98.76,-98.75,-98.819,-98.785,,-98.855,-98.879,-98.903,-98.91,-98.906,-98.903,-99.056,-99.05,-99.08,-99.048,-99.027,-99.01,-99.052,-99.023,-98.984,-99.06,-99.08,-99.109,-99.072,-99.152,-99.211,-99.242,-99.224,-99.17,,-99.2,-99.232,-99.206,-99.202,-99.197,-99.06,,,,,,-99.242,-99.356,-99.327,-99.29,-99.25,-99.25,-99.24,-99.145,,-99.16,-99.2,-99.215,-99.23,-99.265,-99.237,-99.225,-99.26,-99.227,-99.265,-99.296,,-99.366,,-99.43,-99.404,-99.33,-99.448,-99.505,-99.5,-99.449,-99.28,-99.26,-99.24,-99.207,-99.253,-99.315,,-99.349,-99.466,,-99.5,,-99.36,-99.28,,,-99.28,-99.25,-99.23,-99.24,-99.385,-99.407,,-99.407,-99.337,-99.29,-99.33,-99.334,-99.261,-99.25,-99.257,-99.332,-99.359,,-99.415,-99.41,-99.362,,-99.255,-99.225,,-99.19,-99.19,-99.2,,-99.157,-99.155,-99.167,-99.173,-99.265,-99.322,-99.34,-99.378,-99.372,,,-99.5,-99.61,-99.518,-99.39,,-99.357,-99.394,-99.385,-99.401,-99.44,-99.459,-99.397,,-99.41,-99.45,-99.41,-99.43,-99.505,-99.48,,-99.41,-99.4,-99.405,-99.438,-99.47,-99.442,-99.434,-99.54,-99.51,-99.571,-99.577,-99.513,-99.436,-99.454,-99.45,-99.444,-99.513,-99.528,-99.501,-99.442,-99.425,-99.423,-99.498,-99.507,-99.484,-99.442,-99.463,-99.416,-99.451,-99.43,-99.495,-99.55,-99.609,-99.629,-99.648,-99.67
2019-04-08,0.0,0.003318137808617007,0.006313538809101226,0.0075540584153622236,0.008149104405357358,0.006555591415200961,0.007039696627400287,0.00637405196062616,0.0049015652735194875,0.0032777957076004804,0.007180893980958562,0.00952073583992257,0.0101056963046635,0.013080926254639311,0.010166209456188433,0.012112715830240373,0.015884702275294527,0.016540261416814594,0.01765975472002587,0.01679239954816839,0.01696385347748913,0.016419235113764724,0.01652009036630633,0.016449491689527192,,0.014704695820558318,0.01068057124415037,0.011679038244311777,0.00961150556720997,0.011144505405841576,0.010216637082459307,0.009359367435856032,0.009460222688397637,0.009803130547038831,0.008471841213490433,0.007896966274003563,0.009510650314668367,0.008935775375181495,0.008703808294335964,0.008330643859932159,0.009016459577214836,0.00855252541552363,,0.009056801678231363,,0.010065354203646973,0.010216637082459307,0.011497498789736976,0.013191867032434976,0.013897853800225917,0.013665886719380385,0.012344682911086048,,,0.012838873648539577,0.012687590769727242,0.011477327739228712,0.012738018395998116,0.012112715830240373,0.011527755365499442,0.01032757786025497,0.010065354203646973,0.009419880587380965,0.009833387122801298,0.009914071324834638,0.009712360819751431,0.010902452799741842,0.011346215910924641,0.011275617234145503,0.01174963692109077,0.01231442633532358,0.012183314507019509,0.011981604001936446,0.011154590931095637,0.010670485718896167,,0.009419880587380965,0.0096619331934807,,0.009308939809585302,0.010973051476520836,0.011628610618041046,,,,0.011477327739228712,0.010267064708730038,0.010267064708730038,0.010166209456188433,0.010065354203646973,0.010418347587542372,0.009914071324834638,0.008905518799419029,,0.008330643859932159,0.0086836372438277,0.008128933354849094,0.008542439890269427,,,0.007947393900274293,0.007846538647732833,0.00651524931418429,0.0063841374858802195,0.004972163950298481,0.004417460061320017,,0.002491124737776342,,0.0013918024850734755,-0.00020171050508306458,8.068420203319717e-05,0.0008572696466031321,,0.00045384863643700284,0.00037316443440366234,0.00018153945457480112,,0.0008875262223655988,,0.0025718089398095393,,,0.003913183798612285,,,,0.0022490721316766075,0.0033080522833629474,0.0030357431015007458,0.002339841858964008,0.0018759076972728018,0.002198644505405877,,0.002410440535743145,0.0026020655155720063,,0.0033080522833629474,0.003055914152009009,0.003963611424883015,0.0035904469904792092,,0.0024003550104889416,0.0033080522833629474,,,0.00265249314184288,,,,0.002097789252864273,,,,,,0.001996934000322669,0.0011194933032112736,0.000322736808132932,0.00043367758592859605,0.0005345328384702,,,,-0.00036307890914960225,,0.0007866709698241383,,0.0024003550104889416,0.0025012102630305455,0.0016136840406648033,,,0.0020070195255768725,0.001996934000322669,0.0023196708084557444,0.002834032596417681,0.002904631273196675,,0.00265249314184288,0.001996934000322669,0.001996934000322669,0.00048410521219946967,0.0009682104243989393,-0.0004740196869452663,0.00042359206067453596,0.0007866709698241383,0.0009379538486364726,,,0.0026020655155720063,0.0032071970308213435,0.0031063417782797396,0.002904631273196675,0.0035601904147167423,0.003913183798612285,0.00421574955623681,0.0038123285460706807,,0.002551637889301276,0.0032071970308213435,0.0034089075359044077,0.003610618040987616,,0.003610618040987616,,0.004619170566403082,0.004820881071486147,,0.004417460061320017,,,0.0027533483943843404,0.0032071970308213435,0.002904631273196675,0.0026020655155720063,0.0025314668387930125,0.0029449733742133452,0.003005486525738279,0.0031063417782797396,0.0033080522833629474,,,0.0031063417782797396,,0.002097789252864273,,,,0.0024003550104889416,,,,0.002803776020655214,,,,,0.0025012102630305455,0.002017105050831076,0.0015128287881233428,0.001492657737614936,0.0026020655155720063,0.002097789252864273,0.002198644505405877,,0.0013918024850734755,,0.0027533483943843404,0.00265249314184288,0.0030760852025172726,0.0031063417782797396,0.0026020655155720063,0.00319711150556714,0.0027533483943843404,0.002904631273196675,0.003378650960141941,0.0035601904147167423,0.0035904469904792092,0.003055914152009009,0.003509762788446012,0.0037114732935290763,0.0026020655155720063,,0.003792157495562417,,0.003055914152009009,0.002904631273196675,0.0034189930611586115,,,0.003015572050992339,0.00207761820235601,0.0027936904954010107,0.0032878812328545406,0.0032576246570920737,0.0024810392125221388,0.0013918024850734755,0.001996934000322669,0.001996934000322669,0.0021683879296434103,,,,,,,,,0.0018960787477812085,,0.001452315636598409,0.0013010327577860747,0.0009379538486364726,,,0.001351460384056805,0.0014018880103275355,0.0017952234952396046,0.0012606906567694046,0.0012909472325318713,0.001099322252702867,0.0011900919799902674,0.0016943682426980005,0.0024306115862514086,0.001996934000322669,,,,,,0.0010085525254154664,,,0.0009278683233822691,0.0011800064547362074,0.0012405196062611412,0.0010892367274488069,,0.0012405196062611412,0.00159351299015654,,0.002198644505405877,0.00265249314184288,,,0.00270292076811361,0.0029954010004840754,0.002844118121671741,,0.002047361626593543,,0.0013918024850734755,0.001633855091173067,0.0016943682426980005,,,,0.0008875262223655988,,,,,0.0024507826367596718,,0.001270776182023608,0.0016943682426980005,,0.002097789252864273,,0.003378650960141941,0.00318702598031308,0.0030760852025172726,0.00318702598031308,0.0024507826367596718,,0.002551637889301276,,0.002551637889301276,0.002097789252864273,0.0018960787477812085,,,,0.0018960787477812085,0.0021683879296434103,0.002904631273196675,0.003136598354042206,0.0035198483137002154,,0.0022994997579473377,0.002551637889301276,0.002551637889301276,,0.002097789252864273,0.0022692431821848707,,0.0022994997579473377,0.002158302404389207,0.002198644505405877,0.0023600129094722712,0.0026424076165886766,0.00217847345489747,,0.002380183959980678,0.0017649669194771376,0.0015430853638858095,0.0009076972728740057,0.0015632564143940732,0.001775052444731341
2019-04-09,,-99.616,,,-98.99,-98.875,-98.655,-98.647,,-98.723,-98.93,-98.86,,-98.88,-98.967,-98.92,,-99.115,-99.103,,,,,-99.19,,-99.28,-99.223,-99.262,-99.331,-99.13,-99.14,-99.155,,-98.826,-98.685,-98.745,-98.733,,-98.704,,-98.668,-98.761,-98.784,-98.758,-98.662,-98.77,,-98.627,,-98.63,-98.573,-98.607,,-98.63,-98.724,-98.916,-99.04,-99.01,-99.026,-99.05,-98.97,-98.871,-98.78,,,,,,-99.078,-98.855,,-98.78,,,-98.62,-98.685,,-98.68,-98.65,,,-98.53,,,,,-98.59,-98.517,-98.58,,-98.743,,,-98.71,-98.772,,,,-98.787,,-98.627,-98.59,-98.53,-98.525,-98.59,-98.65,-98.745,-98.774,-98.703,-98.646,-98.615,-98.713,-98.7,-98.7,-98.64,-98.625,,-98.72,-98.753,-98.74,-98.71,-98.98,-99.1,,-99.0,-98.975,,-99.07,-99.02,-99.12,,-99.115,-99.157,,-99.232,-99.251,-99.326,-99.34,-99.33,,-99.41,-99.507,-99.575,-99.59,-99.589,-99.685,,-99.655,-99.665,-99.653,-99.71,-99.812,-99.788,-99.813,-99.85,-99.868,,,-99.95,-100.02,,-100.01,-100.02,,-100.152,-100.17,-100.18,,-100.243,-100.22,-100.253,-100.245,-100.27,-100.21,-100.29,,-100.325,-100.33,,,-100.317,,-100.35,-100.382,-100.385,-100.405,-100.325,,,-100.37,-100.418,,-100.427,-100.558,-100.501,-100.5,-100.515,-100.448,-100.39,-100.363,-100.32,-100.256,-100.2,-100.148,-100.09,-100.102,-100.08,,,-99.991,,-99.99,,-99.998,-99.966,-99.935,-99.94,-99.964,-100.017,,-100.01,-100.073,-100.007,-100.0,-99.99,-99.987,-99.95,-99.995,-99.975,-99.921,-99.91,,-99.903,-99.847,,,-99.847,-99.82,-99.84,,-99.78,,-99.703,-99.657,-99.655,-99.668,-99.66,-99.69,-99.74,-99.83,-99.874,-99.93,-99.93,-99.91,,,,,,,-99.87,-99.89,,-99.86,-99.84,-99.811,,-99.89,,,-99.906,-99.845,-99.825,,-99.81,,-99.79,,,-99.703,,-99.61,-99.65,-99.57,,-99.73,,-99.722,-99.718,-99.72,-99.722,-99.715,-99.715,,-99.697,-99.67,-99.698,-99.77,-99.785,,-99.745,-99.77,-99.73,-99.719,-99.694,-99.683,-99.675,-99.656,-99.71,-99.713,-99.67,-99.655,-99.625,-99.611,-99.596,-99.533,-99.507,-99.448,-99.43,-99.465,-99.532,-99.536,-99.45,-99.509,-99.533,,-99.497,-99.478,-99.378,-99.385,-99.448,-99.503,-99.495,-99.498,-99.545,-99.549,-99.487,-99.457,-99.485,-99.495,-99.513,-99.523,-99.53,-99.55,-99.535,-99.545,-99.51,-99.5,-99.446,-99.435,-99.307,-99.315,-99.359,-99.34,,-99.33,-99.27,-99.25,-99.391,-99.409,-99.381,-99.469,-99.47,-99.49,-99.505,-99.545,-99.545,-99.51,-99.503,-99.57,-99.586,-99.61,-99.622,-99.595,-99.6,-99.587,,-99.682,-99.69,-99.68,-99.668,-99.666,-99.652,-99.652,-99.604,-99.525,-99.523,-99.507,-99.479,-99.529
2019-04-10,,,-100.03,-100.535,-100.776,,,,,,-100.47,,,-100.67,-100.619,-100.63,-100.72,-100.78,-100.728,-100.752,-100.746,-100.677,-100.535,-100.59,-100.572,-100.504,-100.433,-100.45,-100.521,-100.34,-100.43,-100.38,-100.425,-100.4,-100.256,-100.281,-100.369,-100.236,-100.127,-100.15,-100.16,-100.185,-100.24,-100.276,-100.176,-100.142,-100.111,,-100.028,-100.109,-100.11,-100.145,,,-99.965,-99.957,-99.93,,-99.89,,,-100.068,-100.013,-99.935,,-99.998,-100.0,,-99.83,-99.81,-99.815,-100.012,-100.1,-100.026,,-99.842,-99.79,-99.84,-99.865,-99.77,-99.82,-99.755,-99.77,,-99.849,-99.816,-99.94,-99.83,,-99.87,,-99.898,-99.88,-99.996,-99.997,-99.94,-100.004,-99.984,-100.01,-99.99,-99.931,-99.936,,-99.84,-99.825,-99.915,-99.933,-99.83,-99.815,,-99.772,-99.836,-99.829,-99.819,-99.88,-99.96,-99.905,-99.841,-99.82,-99.843,-99.905,-99.955,-99.93,-99.979,-100.05,-99.975,-99.957,,-99.855,-99.79,-99.835,-99.8,-99.83,-99.85,,-99.87,-99.913,-99.94,,-99.912,-99.858,-99.862,-99.835,-99.9,-99.98,-100.01,-100.028,-100.032,,-100.065,-100.135,-100.171,-100.173,-100.181,-100.17,-100.233,-100.25,-100.357,-100.418,,,,-100.464,-100.389,-100.298,-100.215,-100.28,,-100.403,,-100.55,-100.547,-100.514,-100.58,-100.53,-100.54,,-100.452,-100.42,-100.378,-100.305,-100.3,,-100.314,-100.305,,-100.32,,,-100.41,-100.392,-100.375,-100.371,-100.37,-100.34,-100.33,-100.33,-100.262,-100.253,-100.255,-100.245,-100.25,-100.27,-100.285,,-100.25,,-100.237,-100.201,,-100.183,-100.161,-100.13,-100.142,-100.102,-100.175,,-100.12,-100.112,-100.132,-100.216,,-100.155,-100.135,-100.2,-100.192,-100.124,-100.08,-100.147,-100.15,-100.17,-100.13,-100.067,,-100.14,,-100.095,-100.055,-99.93,,,,,-99.94,-99.96,-99.98,,,,,,,,,-99.97,-99.935,-99.935,,,-99.94,-99.955,-99.91,,-99.87,-99.86,-99.82,-99.835,-99.838,-99.834,-99.802,-99.847,,-99.86,,-99.751,-99.79,,,-99.78,,-99.737,,,-99.632,-99.61,-99.65,-99.605,-99.627,-99.638,-99.528,-99.561,,-99.54,,-99.5,-99.53,-99.507,-99.49,,-99.534,,-99.51,-99.5,-99.415,-99.485,,-99.56,-99.62,-99.6,-99.672,,-99.715,,,-99.7,,,-99.73,-99.767,-99.74,-99.74,,-99.7,-99.69,,-99.72,,,-99.715,-99.71,-99.71,-99.829,-99.93,-99.9,-100.032,-99.983,-99.985,-99.959,-99.95,-99.98,-99.904,-99.85,,-99.85,-99.85,-99.851,,-99.786,,-99.72,,-99.627,-99.695,-99.69,-99.69,-99.683,,-99.787,-99.823,-99.83,-99.85,,-99.845,-99.865,,-99.816,-99.767,-99.785,-99.734,-99.721,-99.727,-99.739,-99.712,-99.64,-99.613,-99.609,-99.61,-99.593,-99.573,-99.596,-99.59,-99.572,-99.501,-99.481,-99.479,-99.459,-99.539,-99.592,-99.628,-99.663
2019-04-11,0.0,,,,-0.007502027575020224,-0.0057785888077859626,-0.005575831305758284,-0.006082725060827193,,-0.005221005677210062,,,-0.007096512570965155,,-0.0038118410381184588,-0.00344687753446881,0.0013179237631791914,0.0025141930251419775,0.002787915652879214,,0.0027372262773722226,,0.004156528791565253,0.004156528791565253,0.00344687753446881,0.0027372262773722226,0.0026358475263585273,,0.003183292781832856,0.004703974047039727,0.0052716950527169106,,,,0.007481751824817514,0.006995133819951315,0.006255068937550734,0.0055251419302514366,,0.005170316301703215,0.005119626926196223,0.005200729927007352,,0.006184103811841033,0.00633617193836172,0.008008921330089276,0.007806163828061598,,0.008972019464720246,0.008921330089213255,,0.011040145985401446,0.01013787510137875,0.010249391727493874,0.010391321978913277,0.009884428223844225,0.010340632603406286,0.008211678832116811,,,,0.007958231954582284,0.007654095701540911,0.008211678832116811,0.008414436334144347,,0.007400648824006529,,,0.009124087591240934,,0.009529602595296003,0.00861719383617188,0.008110300081102972,0.007806163828061598,0.008414436334144347,0.008809813463098132,,0.0071978913219788495,0.005981346309813498,0.006589618815896246,0.006599756690997529,,0.00623479318734788,0.005920519059205223,,0.003832116788321169,0.004237631792376383,,0.003244120032441131,0.0025141930251419775,0.0026865369018653747,,-0.00015206812652068702,0.0005474452554744733,-0.0005068937550689088,-0.0004562043795620611,0.0009630981346309698,0.001723438767234405,,0.00164233576642342,0.0013179237631791914,0.0022303325223033137,0.0034975669099756575,0.004207218167072245,0.005038523925385238,0.0048661800486618405,,,,0.0011151662611516568,0.001500405515004016,0.0004055150040552134,,-0.00041565287915649654,-0.000223033252230389,-5.068937550684765e-05,0.0,-0.0006082725060827481,-0.0002027575020275347,-0.0009630981346309698,-0.0013686131386861833,-0.0006589618815895957,-0.0010644768856448092,,-0.0008921330089212678,-0.0021390916463909014,,-0.0019261962692619396,-0.002027575020275779,-0.005748175182481825,-0.006954582319545895,-0.0055454176804541466,-0.0057785888077859626,-0.005119626926196223,-0.004237631792376383,,,-0.004085563665855696,,,-0.005221005677210062,-0.005981346309813498,-0.006802514193025208,-0.00679237631792378,,-0.005119626926196223,-0.004582319545823177,-0.005393349553933459,,-0.00701540957015417,,,-0.006488240064882406,,-0.006396999188969994,-0.005879967558799658,-0.004916869424168689,-0.005890105433901086,,-0.005849553933495521,-0.006143552311435468,-0.005677210056772124,-0.005474452554744589,-0.004764801297648002,,-0.005636658556366559,-0.006184103811841033,,-0.005575831305758284,,-0.006346309813463146,-0.006589618815896246,,-0.005423763179237597,-0.005575831305758284,-0.0066909975669099415,-0.008292781832927797,-0.00869829683698301,-0.009529602595296003,-0.008890916463909118,-0.008840227088402269,,-0.00849553933495533,-0.009022708840227094,-0.009783049472830528,,-0.007958231954582284,,-0.007917680454176864,-0.008059610705596125,-0.00898215733982153,,-0.008211678832116811,,,,,-0.005302108678021048,-0.0057785888077859626,,-0.004045012165450131,-0.0032441200324412754,-0.003751013787510184,-0.0033454987834549707,-0.002382400648824001,,,,,-0.002098540145985337,-0.0014395782643957411,,-0.001419302514193031,,-0.0018248175182482443,-0.001419302514193031,,,-0.0010137875101378176,-0.001419302514193031,,-0.0018248175182482443,-0.002098540145985337,,,,-0.0016930251419302676,-0.0014699918896998786,,-0.00027372262773723666,,0.0006285482562854584,0.0023519870235198634,0.0027575020275750766,0.0019261962692619396,,-0.0009124087591241221,-0.000223033252230389,0.001186131386861359,0.0010137875101378176,,0.00010137875101383938,,0.001419302514193031,0.001723438767234405,0.0006589618815895957,0.0,,,,,-0.0008414436334144202,-0.0009630981346309698,,-0.0005575831305759004,0.0,,0.001875506893755092,0.0026763990267639477,0.0025344687753446875,0.0026358475263585273,,,,0.00248377939983784,,0.0022810218978101615,0.002392538523925428,0.002331711273317153,,,,0.0020782643957826265,,,,0.0022810218978101615,,,,,,0.00344687753446881,,,0.003751013787510184,,0.003903081914030871,,,0.0025851581508515354,0.0017538523925385424,0.0016220600162205655,,,,,0.0025344687753446875,,,,0.0027372262773722226,0.002331711273317153,0.002331711273317153,,,,,,0.0009124087591241221,,,,,,0.001875506893755092,,0.0020681265206811995,0.002088402270884054,0.0020174371451743517,,,0.002554744525547398,,0.001135442011354367,0.0005170316301703359,,,,0.0003649635036496489,,0.0008617193836171304,0.0009124087591241221,,0.0027372262773722226,,,,0.0021289537712894744,,0.0019261962692619396,,0.0018248175182481003,,,0.0026358475263585273,0.003173154906731573,0.0027372262773722226,,,,,,,0.001723438767234405,0.001419302514193031,,,,0.0013179237631791914,,,,,,0.001581508515815145,0.001419302514193031,0.0015206812652068702,0.001419302514193031,,,0.0011151662611516568,0.0010644768856448092,0.0007096512570964434,0.0007806163828061454,0.0009124087591241221,0.0005068937550689088,0.0009529602595295427,0.0012875101378750542,0.0019059205190592294,0.0019667477696675042,0.0019160583941605124,0.0022303325223033137,0.0028183292781833514,0.002939983779399901,0.0032137064071369936,0.0026358475263585273,0.002929845904298474,0.0017842660178426797
2019-04-12,0.0,-0.0008851967860548256,-0.0011089278418708226,0.002217855683741507,0.003190599404680733,0.0037839730744537634,0.0022373105581602474,0.003385148148868689,0.003307328651193451,,,0.008492052683799833,0.008832512986128548,0.010174899321024807,0.009289702534970119,0.010486177311725343,0.009124336102410343,0.009552343339623735,0.008579599618684371,0.0070913017256473525,0.007217758409369372,0.007460944339604247,,0.008832512986128548,0.0093188848465983,0.009669072586136454,0.009834439018696092,0.007567946148907527,0.006011556195404709,0.005797552576798014,0.00398824925585102,0.0032100542790996114,0.0006322834186105107,0.0009824711581486653,0.0009532888465204857,0.0011478375907083033,-0.0006031011069824694,-0.0008949242232642649,-0.0012159296511741015,-0.0003988249255852126,0.0016633917628060958,,0.001566117390712118,0.0010019260325674056,0.0009532888465204857,0.0007587401023325299,0.0007587401023325299,,-0.0005739187953542899,-0.00033073286511941423,-0.00040855236279451363,0.0009241065348923062,0.001741211260481195,0.004095251065154299,0.0053890002140034995,0.005622458707028937,0.005573821520982017,0.005962919009357789,,0.005622458707028937,0.0035505145814283268,0.0042314351860857575,0.005184724032606243,0.003608879204684686,0.003608879204684686,0.0021400361860664076,0.0013423863348961207,0.0020233069395536895,0.002217855683741507,,-0.000700375479076309,-0.0010894729674520824,-0.0008949242232642649,-0.001439660706990237,-0.0011867473395459221,-0.0002626408046536159,0.0008268321627983283,-0.00031127799070067394,-0.0011381101534990023,-0.0005058267348884916,0.0003793700511661958,0.0003501877395380163,,0.001196474776755223,,0.002217855683741507,0.0008560144744265078,0.0016342094511779162,,0.00135211377210556,,0.0020719441256006094,0.0009532888465204857,0.0025096788000233024,0.0020233069395536895,,0.0001848213069783783,-0.0003599151767475938,0.00025291336744417666,0.0009532888465204857,,,,,0.0008560144744265078,,,0.00046691698605073444,0.00041827980000381463,,0.0,3.8909748837480566e-05,0.000807377288379588,0.0008754693488452481,0.0014396607069900988,0.0006614657302386902,,0.0014396607069900988,0.0012548394000115822,0.0012451119628022812,0.0009532888465204857,0.000807377288379588,0.0006614657302386902,0.0009532888465204857,,,,0.0011478375907083033,,0.0019260325674597116,0.001196474776755223,,,0.0011478375907083033,0.001731483823271894,,,0.0013910235209430406,,0.0006128285441916322,,0.0026555903581642003,0.0028987762883989376,0.004844263730277528,0.004552440613995732,0.004532985739576992,0.0051069045349311434,,,0.005719733079122914,0.005330635590747141,,0.0056127312698196355,0.005087449660512403,0.0047761716698118675,0.005573821520982017,0.0044940759907393735,0.004844263730277528,0.005593276395400757,0.0059434641349389115,0.005817007451216892,0.005136086846559323,0.005038812474465346,0.005038812474465346,,0.004795626544230608,0.0053598179023753205,0.005768370265169834,0.005817007451216892,0.006352016497733425,,0.006157467753545608,0.005476547148888038,0.004552440613995732,0.004066068753526119,,0.0047469893581836885,0.004357891869807915,0.004620532674461531,0.005233361218653301,,0.006157467753545608,0.006352016497733425,,,,0.005233361218653301,0.005719733079122914,0.006303379311686505,0.006974572479134635,0.007606855897745146,0.009007606855897625,0.0092507927861325,0.009669072586136454,0.010272173693118785,0.011264372288476751,0.011069823544288933,0.011069823544288933,0.01141028384661765,,0.01199393007918124,0.011614560028014906,0.012276025758253597,0.012130114200112837,0.013365498725705678,0.014406334507110702,0.014668975311764318,0.015388805665259369,0.016128090893173158,,0.01773311803272303,0.018462675823427522,0.01873504406529044,0.018793408688546797,0.01931869029785403,,0.018579405069940238,0.018764226376918616,0.017489932102488157,0.01790821190249211,0.018958775121106573,0.019046322055991112,0.017596933911791575,0.018307036828077185,0.018355674014124104,0.01787902959086393,0.01860858738156842,0.01858913250714954,0.018900410497850215,0.01920196105134131,0.019046322055991112,0.018958775121106573,0.019046322055991112,0.018968502558315874,0.019620240851345262,0.020388708390887234,0.020378980953677933,0.02128363261415136,0.02118635824205752,0.021468453921129876,0.021371179549035897,0.022159101962996745,0.022324468395556383,0.021604638042061333,0.021400361860664078,0.02200346296764641,0.022947024376957594,0.023744674228127743,0.02368630960487138,0.02459096126534495,0.025709616544425072,0.02585552810256597,0.026186260967685386,0.026215443279313563,0.0263808097118732,0.027032548004902592,0.02459096126534495,0.02318048286998303,0.022966479251376334,0.023540398046730485,0.024707690511857668,0.024902239256045483,0.0250092410653489,0.025388611116515237,,0.025748526293262693,0.02582634579093779,0.025485885488609077,0.026225170716523003,0.026808816949086593,0.026876909009552256,0.02700336569327441,0.0278788350421198,0.028219295344448513,0.028336024590961233,0.02916285675375956,0.028744576953755745,0.028044201474679436,0.02837493433979871,0.028734849516546306,0.028015019163051255,0.028647302581661767,0.028871033637477766,0.028618120270033586,0.028812669014221404,0.029483862181669533,0.030777611330518737,0.03127371062819779,0.031594716056107766,0.030904068014240893,0.03043715102819002,0.028209567907239073,0.02786910760491036,0.02827765996770487,0.02847220871189269,0.027392463181650048,0.026915818758389873,0.02582634579093779,0.026147351218847766,0.02648781152117662,0.029454679870041356,0.030913795451450333,,0.028871033637477766,0.029250403688644098,0.029561681679344635,0.029474134744460097,0.02789828991653854,0.027995564288632518,0.026711542576992615,0.0265267212700141,0.02559288729791249,0.024950876442092543,0.02388085834905934,0.023540398046730485,0.022694111009513417,0.02270383844672272,0.022937296939748154,0.02298593412579521,0.02328748467928631,0.022470379953697283,0.02388085834905934,0.022976206688585774,0.022295286083928206,0.022557926888581818,0.023384759051380287,0.023034571311842132,0.02308320849788905,0.02331666699091449,0.02459096126534495,0.024299138149063152,0.026118168907219585,0.02716873212583405,,0.028666757456080508,0.028832123888640284,0.029503317056088274,0.02906558238166572,0.03048578821423708,0.030709519270053075,0.031302892939825966,0.031205618567732126,0.03173090017703922,0.033656932744499074,0.033929300986362126,,0.033977938172409045,,0.033442929125892376,0.03181844711192376,0.03178926480029558,0.029561681679344635,0.028715394642127565,0.030563607711912178,0.027314643683974946,,0.026799089511877153,0.02648781152117662,0.027022820567693152,0.028812669014221404,0.027985836851423078,0.02720764187467167,0.02707145775374007,0.02768428629793184,0.027849652730491618,0.027509192428162764,,0.026059804283963227,0.02628353533977936,0.026195988404894822,0.026867181572342816,0.026050076846753926,0.026157078656057205,0.02585552810256597,0.025544250111865435,0.025271881870002517,0.025135697749070922,0.02521351724674616,0.02455205151650733,0.024678508200229488,0.024318593023482032,0.02439641252115713,0.024162954028131695,0.023443123674636645,0.023598762669986843,0.02439641252115713,0.025339973930468176,0.02529133674442126,0.024882784381626746,0.02459096126534495
2019-04-15,,,-105.009,-104.958,-104.68,-104.485,-104.38,-104.412,-104.433,-104.627,,-104.52,,-103.89,-103.92,-103.811,-103.901,-103.792,-103.86,-103.9,-103.969,-103.983,-103.937,-103.822,-104.056,-104.103,-104.065,-104.409,-104.554,-104.511,-104.418,-104.662,-104.778,-104.721,-104.695,-104.655,-104.722,-104.58,-104.8,-104.644,-104.555,,-104.513,-104.48,,-104.425,-104.551,-104.579,-104.416,-104.386,-104.347,-104.332,-104.323,-104.433,-104.374,-104.3,-104.252,-104.295,-104.19,-104.144,-103.948,-103.898,-103.709,-103.766,-103.85,-103.699,-103.705,-103.83,-103.685,-103.649,-103.633,-103.594,-103.64,-103.507,,,-103.489,-103.425,-103.388,-103.416,-103.543,-103.56,-103.577,-103.511,-103.559,-103.65,-103.62,-103.57,-103.55,-103.662,-103.666,-103.502,-103.39,-103.305,,-103.257,-103.234,-103.246,-103.33,-103.375,,,-103.587,-103.45,-103.46,-103.503,-103.421,-103.253,-103.135,-103.061,-103.15,-103.071,-103.055,,-103.12,-102.985,,-102.993,-102.95,-103.12,,,,-103.27,-103.275,,,-103.32,-103.37,,-103.391,-103.515,,-103.402,-103.461,-103.409,,-103.528,-103.447,-103.3,-103.301,-103.268,-103.351,-103.339,-103.34,-103.21,-103.35,-103.35,-103.366,-103.29,-103.213,,-103.132,-103.13,-103.15,-103.22,-103.359,-103.243,-103.27,-103.31,,-103.225,-103.23,-103.15,-103.193,-103.187,-103.169,-103.245,-103.136,-103.118,-103.2,,,,-103.15,-103.15,-103.114,-103.115,-103.1,,-103.11,,-103.05,,,,,,-103.083,,-103.165,-103.13,-103.202,,,-103.045,-103.13,,-103.12,-103.159,-103.199,-103.13,-103.127,-103.11,,,-103.18,,-103.19,,-103.235,,-103.25,-103.334,,-103.28,-103.3,-103.27,-103.25,,-103.15,,,-103.112,-103.1,,,-103.071,-103.032,-103.09,-103.085,-103.155,-103.168,,,-103.296,-103.25,-103.27,,-103.347,,-103.41,-103.347,-103.349,-103.321,-103.32,-103.31,-103.37,-103.412,-103.442,-103.37,-103.407,-103.461,,-103.4,-103.41,-103.46,,,,-103.442,,-103.416,-103.471,,,-103.415,-103.348,,-103.368,-103.473,-103.5,,-103.5,,,-103.44,-103.452,,-103.433,-103.45,-103.416,,-103.46,-103.447,,-103.485,-103.49,,-103.48,-103.458,-103.443,-103.351,,-103.305,,,,,-103.22,-103.23,-103.08,-103.047,,,,,-102.855,-102.82,-102.84,-102.68,-102.632,-102.524,-102.5,-102.493,-102.49,,,-102.545,-102.502,-102.457,-102.6,-102.626,-102.7,-102.7,-102.672,,-102.725,,-102.707,,-102.71,-102.71,-102.76,-102.705,,-102.798,,-102.72,-102.68,-102.778,,,-102.66,,,-102.74,-102.66,-102.675,,-102.71,,-102.68,,-102.66,-102.695,-102.69,,-102.7,-102.657,-102.692,-102.712,-102.689,-102.733,-102.752,-102.744,-102.736,-102.744,-102.77,-102.793,-102.783,-102.798,-102.789,-102.73,-102.704,-102.631,-102.71,-102.78,-102.872,-102.922,-102.966,-102.902,-102.925,-102.95,-102.951,-102.942,-102.921,-102.938,-102.92,-102.993
2019-04-16,,-102.985,-102.913,-102.86,-102.925,-102.847,-102.67,-102.56,-102.465,-102.457,-102.57,-102.28,-102.25,-102.315,-102.44,-102.42,-102.629,-102.705,,-102.441,-102.251,,,-102.199,-102.301,-102.34,-102.325,,-102.31,-102.29,-102.389,-102.379,-102.433,-102.473,-102.488,-102.43,-102.429,-102.386,-102.433,-102.44,-102.463,-102.47,-102.78,-102.726,,-102.616,-102.59,-102.551,-102.515,-102.545,-102.613,-102.669,-102.698,,-102.693,-102.729,-102.688,-102.814,-102.859,-103.03,-103.1,-103.04,-102.95,-102.925,-102.914,-102.925,-102.983,-103.02,-103.0,-102.98,-102.981,-103.011,-103.014,-103.004,-102.957,-102.897,-102.901,-102.905,-102.885,,-102.808,-102.787,,-102.915,-102.94,-102.861,-102.876,,-102.83,-102.62,-102.637,-102.59,-102.56,,-102.493,,-102.41,,,-102.394,-102.487,-102.638,-102.65,,,-102.86,,-102.64,-102.665,-102.583,-102.555,-102.517,-102.581,-102.6,-102.541,-102.478,-102.55,-102.553,-102.553,-102.584,,-102.58,,-102.58,-102.58,-102.594,-102.625,-102.59,-102.57,-102.533,,-102.59,,,,,-102.68,-102.65,-102.71,,-102.845,-102.875,-102.9,-102.95,-102.956,-102.953,-103.021,-103.044,-103.045,,-103.04,-103.059,-103.004,-103.036,-103.114,-103.106,-103.165,-103.161,-103.158,-103.1,-103.083,-103.097,-103.11,,,-103.097,-103.157,-103.172,-103.16,-103.188,,-103.144,-103.142,-103.081,-102.927,,-103.01,-102.98,,-103.02,-103.03,,-103.078,-103.135,-103.168,-103.185,-103.19,-103.16,,-103.05,-103.04,-103.027,-103.045,-103.053,,-103.1,-103.123,-103.145,,,-103.1,-103.07,-103.08,-102.974,-102.99,,,,-103.0,-102.97,,,-103.02,-103.0,-103.037,,-103.085,,,,-103.04,-103.035,-103.03,-103.02,-102.97,,,,-103.005,-103.03,-103.063,-103.085,,-103.005,-103.035,-103.007,-103.0,-102.965,-102.96,,,,,-102.95,-102.95,-102.93,,-102.871,-102.9,-102.94,-102.95,-102.965,,-102.9,,-102.891,-102.887,-102.95,-102.981,-103.046,,-103.047,-103.037,-103.049,-103.014,-102.927,-102.92,-102.927,-102.912,-102.922,-102.919,-102.884,-102.92,-102.938,-102.872,-102.945,-103.0,-103.009,-103.015,-103.062,-103.07,,-103.145,-103.157,-103.155,-103.187,-103.257,-103.293,-103.341,-103.421,-103.475,-103.485,-103.547,,,-103.629,-103.703,-103.735,,-103.745,-103.785,-103.677,,,,,-103.64,,,,-103.73,,,,-103.585,,,,-103.523,-103.52,,-103.575,,,,-103.55,-103.557,-103.562,,,,,-103.517,-103.49,-103.457,-103.44,-103.443,-103.43,-103.455,-103.51,-103.519,-103.495,-103.483,-103.467,-103.501,-103.509,-103.484,-103.447,-103.433,-103.37,-103.368,-103.368,-103.35,-103.405,-103.43,-103.43,-103.43,-103.415,-103.453,-103.49,-103.505,-103.521,-103.645,-103.565,-103.495,-103.43,-103.47,-103.459,-103.381,-103.34,-103.306,-103.37,-103.326,-103.36,-103.288,-103.33,-103.36,-103.287,-103.35,-103.299,-103.295,-103.277,-103.267,-103.341,-103.358,-103.35,-103.372,-103.368,-103.367,-103.357
2019-04-17,0.0,0.0033485392604095782,0.005503251480151345,0.006823255362515801,0.005726487430845418,0.005736193341745064,,,0.004367659904882101,0.004251188974085241,,,0.0062603125303309325,0.006483548481024868,0.008618848878967342,,,,,,,0.007861787828787754,,,,,0.008347083373774622,,0.008347083373774622,,0.01028826555372224,,0.009385615840046576,0.010521207415315958,0.01202562360477535,0.013491216150635742,0.011452974861690697,0.01208385907017378,,0.008735319809764202,0.008152965155779903,,0.006017664757837567,0.006862079006114662,0.007279433174803456,0.0063088420848297164,,0.006046782490536782,0.005182956420459981,0.004144423954188028,0.005153838687760904,0.006357371639328362,0.0063379598175289315,0.006561195768222866,0.006959138115112091,,0.007405610016500099,0.007473551392798175,0.006667960788119941,0.007755022808890541,0.007337668640201885,0.008482966126370914,,0.007764728719790325,0.008376201106473838,0.009201203532951502,0.009385615840046576,0.00742502183829953,0.007580316412695388,0.008502377948170482,0.008133553333980335,0.007522080947296959,0.006211782975832287,0.006114723866834858,0.0054353101038532685,0.005095603222362474,0.005270309618557625,,0.00524119188585841,0.005629428321847989,0.0045617781228768205,0.0045617781228768205,0.004270600795884672,0.004406483548480962,0.004270600795884672,0.004814131806269971,0.004076482577889951,0.0038823643598952314,,0.0020867708434436903,0.001067650198971168,,,0.0014558866349607463,0.001698534407454112,0.00276618460642528,0.003494127923905653,0.0045520722119770365,0.004687954964573465,0.005037367756964044,0.004445307192079961,0.004901485004367615,0.004707366786372896,0.0035038338348054375,0.0026691254974279886,0.003785305250897802,0.003998835290691953,0.0038241288944968013,0.0029214791808211387,0.0027176550519266342,0.003465010191206438,0.0033194215277103636,0.0031350092206152897,0.004290012617684102,0.004047364845190736,0.0037658934290983716,0.003785305250897802,0.0038823643598952314,0.0032514801514121495,,0.0025332427448315604,0.0022808890614384103,0.0015820634766572522,0.001766475783752326,0.0008250024264776642,0.0016500048529554663,0.002426477724934485,0.002620595942929205,0.002096476754343337,0.0015529457439580373,,,0.0011841211297680277,0.0019411821799476157,0.0014752984567601769,0.0014558866349607463,0.0007376492283800195,0.0006794137629815896,0.0007279433174803731,0.0011550033970688127,0.0017373580510531112,-0.0002911773269921492,,3.8823643598999206e-05,9.705910899742906e-05,0.00036882461419000974,-0.0006502960302825126,-0.0010191206444725223,-0.0017179462292536806,-0.0012617684169658882,-0.0016888284965544656,-0.001290886149665103,-0.0028244200718237095,-0.003202950596913504,-0.0035717752111035133,-0.004027953023391306,-0.004396777637581316,-0.0024555954576337,-0.0020382412889450446,-0.0023488304377366244,-0.003057361933417429,,,-0.003523245656604868,-0.0041735416868873805,,-0.004319130350383455,-0.003833834805396448,-0.0022226535960399806,-0.0027855964282248484,-0.002581772299330344,-0.003057361933417429,-0.004018247112491521,-0.003785305250897802,-0.004367659904882101,-0.004367659904882101,-0.003591187032903082,-0.0037367756963991566,-0.0033485392604095782,-0.0036591284092011584,-0.0031544210424148582,-0.0030088323789187834,-0.002863243715422709,-0.0036105988547025128,-0.003397068814908224,,-0.003785305250897802,,-0.004270600795884672,,-0.006405901193827008,-0.0071920799767058105,-0.007337668640201885,-0.006493254391924652,-0.006405901193827008,,,,-0.005920605648840138,-0.00514413277686112,-0.004610307677375467,-0.004610307677375467,-0.004755896340871541,,,-0.00446471901387953,-0.004493836746578744,-0.00465883723187425,-0.005629428321847989,,,-0.005726487430845418,-0.006211782975832287,,-0.005726487430845418,,-0.00514413277686112,,-0.006017664757837567,,-0.005532369212850698,,-0.005920605648840138,-0.006357371639328362,-0.0062603125303309325,,,-0.0049111909152674,,-0.0038435407162962323,,-0.004222071241386026,-0.003688246141900373,-0.003202950596913504,-0.003494127923905653,-0.0034844220130058686,,-0.0031641269533146427,,-0.0017761816946521103,,-0.00189265262544897,-0.0020867708434436903,-0.0027176550519266342,,-0.002135300397942336,-0.002232359506939765,-0.002135300397942336,,-0.002232359506939765,-0.002232359506939765,,-0.001795593516451541,-0.002232359506939765,-0.002426477724934485,-0.0028147141609240634,-0.0033485392604095782,-0.0038823643598952314,,-0.004076482577889951,-0.005047073667863691,,-0.005658546054547204,,,-0.004755896340871541,-0.0045617781228768205,-0.004270600795884672,-0.0045617781228768205,-0.00446471901387953,,-0.00446471901387953,,-0.0054353101038532685,,,-0.004950014558866399,,-0.00465883723187425,,-0.005677957876346772,-0.0062603125303309325,,-0.006648548966320511,,-0.0071823740658060265,-0.0067359021644181555,,-0.006891196738814015,-0.00674560807531794,-0.007279433174803456,-0.007716199165291679,-0.0079103173832864,-0.008055906046782474,-0.00902649713675635,,-0.010094147335727518,-0.008929438027758922,-0.008929438027758922,,-0.00951179268174322,,-0.009414733572745792,-0.00922061535475107,-0.009948558672231444,-0.01019120644472481,,-0.011258856643695978,,-0.01208385907017378,-0.012132388624672426,-0.012666213724158078,-0.011744152188682985,-0.0122779772881685,-0.012239153644569501,,,-0.011938270406677704,-0.012200330000970639,-0.012326506842667145,-0.012132388624672426,-0.011782975832281847,,,,-0.01247209550616322,-0.012520625060662004,,-0.013005920605648874,-0.013442686596137097,-0.013005920605648874,-0.012908861496651445,,-0.0122779772881685,,-0.012326506842667145,-0.012714743278656723,,-0.01258856643696008,-0.013161215180044594,-0.014122100359118686,-0.014122100359118686,-0.01426768902261476,-0.014384159953411621,-0.013685334368630463,-0.014277394933514546,-0.015024750072794349,-0.015335339221585928,-0.01463651363680477,,-0.014073570804620041,-0.014092982626419472,-0.013462098417936528,,-0.013927982141123967,-0.013879452586625322,,-0.014393865864311406,,,-0.012617684169659294,-0.013200038823643593,-0.013297097932641022,-0.013510627972435173,-0.013394157041638313,-0.013083567892846733,-0.013200038823643593,-0.012569154615160649,,-0.012229447733669855,,-0.010860914296806754,-0.011181209356498117,-0.011452974861690836,-0.011317092109094408,-0.010637678346112818,-0.010967679316703829,-0.011336503930893976,-0.010870620207706537,-0.01011355915752695,-0.00990002911773266,-0.009967970494030875,,-0.01154032805978848,-0.011307386198194762,-0.011802387654081415,-0.011977094050276567,-0.011569445792487695,-0.011617975346986342,-0.011724740366883417
2019-04-18,,,,,,-103.07,-102.703,-102.618,,-102.828,-102.869,-102.929,-102.984,-103.12,-103.178,-103.065,-103.047,-103.06,-103.114,-103.14,-103.285,-103.17,-103.185,-103.22,,-103.053,-103.108,-103.18,-103.259,-103.33,-103.318,-103.211,,-103.125,,-103.24,-103.24,-103.34,,-103.35,-103.425,-103.41,,-103.41,-103.475,-103.5,-103.53,,,,,-103.433,,-103.507,,-103.51,-103.49,-103.54,,-103.62,-103.645,,-103.699,-103.715,-103.67,-103.685,,-103.69,,,-103.74,,,-103.68,-103.745,,,,-103.91,-103.97,-103.916,-103.903,,,-103.88,-103.95,-103.975,,-104.055,-104.103,,-104.18,-104.19,,-104.08,,,,-104.15,-104.195,-104.265,-104.17,-104.24,-104.2,-104.067,-104.075,-103.964,-103.98,-104.06,-104.08,,,,,,,-104.23,,-104.213,,-104.46,-104.505,,-104.645,-104.6,,,,-104.715,,,-104.747,-104.74,,-104.721,,,-104.66,-104.62,-104.57,-104.57,-104.61,,-104.51,,,,,,,-104.725,-104.9,,,,-105.026,,,,,,,,-104.93,-104.88,,-104.775,,-104.74,,,-104.782,,,,-104.804,,,-104.862,-104.84,,-104.81,,-104.79,-104.84,,,-104.74,-104.676,-104.685,,-104.69,-104.67,,,,-104.83,-104.91,-104.9,,,,,-105.07,,,,,,-105.045,,-105.08,,,,,-105.24,-105.17,,,,-105.18,,,,-105.2,,-105.19,-105.17,,-105.2,,,,,,-105.24,,,,-105.159,,,-105.22,,,,-105.225,-105.212,-105.25,,,,,,-105.125,,,-105.042,,-105.048,-105.088,,-105.035,-105.018,,,,,-105.045,,-105.17,-105.175,,,,-104.915,,-104.89,,,-104.827,,,,,-104.75,,,-104.772,-104.74,,,-104.782,,-104.76,-104.733,,-104.82,,,-104.831,,-104.864,,-104.965,-104.96,,-104.918,,-104.92,-104.89,,,-104.93,,-105.01,,-104.911,-104.915,-104.833,-104.768,,-104.63,-104.65,,,,-104.7,,,-104.655,,,-104.47,,,-104.355,,-104.63,-104.655,-104.695,,-104.78,,-104.869,-104.83,-104.916,-104.855,-104.84,,-104.98,-105.04,-105.007,-105.025,-105.1,,,-105.037,-105.16,-105.091,-105.08,-105.071,-105.049,-105.102,-105.16,-105.115,-105.019,-105.042,-105.105,-105.1,,-105.085,-105.121,-105.203,-105.145,-105.197,-105.22,-105.26,,-105.215,-105.153,-105.075,-105.053,-105.037,-104.977,-104.964,-104.942,-104.88,-104.878
2019-04-22,0.0,0.0038662486938350026,0.0014249073810202878,0.0014249073810202878,,0.003989740666856671,0.0035717678350907648,0.0033152845065071127,0.004198727082739691,0.00566163199392043,0.004208226465279736,0.0034197777144485556,,0.0020898641588296654,-0.00035147715398491433,,0.0005699629524081151,,-0.0004749691270067176,-0.0015199012064215504,-0.003324783889047158,,-0.004968177068490512,-0.004882682625629294,-0.00377125486843347,-0.0038092523985940557,-0.003514771539849818,-0.003324783889047158,,-0.004160729552579105,-0.004179728317659331,-0.0032297900636457607,,-0.003277286976346527,-0.0022798518096323254,-0.0022798518096323254,-0.0010924289921154639,-0.00012349197302166827,-0.0005699629524081151,-0.00037997530160532004,-0.00018998765080266002,0.0003324783889048238,-0.0013109147905385296,-0.001776384535005202,-0.0009499382540134352,-0.001852379595326239,-0.0016148950318229478,-0.0013774104683195215,-0.0011399259048160953,-0.0008644438111522179,0.0,0.0004274722143060863,0.001168424052436636,0.0009024413413128039,0.0008074475159115413,0.0007314524555903694,0.002042367246129034,0.003875748076375048,0.004369715968462125,0.0049016813907096545,0.005224660397074163,0.004654697444666183,0.004493207941483794,0.004398214116082532,0.002042367246129034,0.0006649567778095126,0.001738387004844751,0.0015578987365821363,0.0020898641588296654,0.0010069345492543817,0.00010449320794157777,-0.0005224660397073488,0.00041797283176590606,,,,,,0.0022798518096324603,,0.0037997530160540104,,0.004578702384345011,0.005557138785978987,,0.004892182008169475,,0.005509641873278221,0.0044362116462429825,0.004740191887527401,,,0.002374845635033723,0.002042367246129034,,0.0006649567778095126,0.0005129666571673035,,,0.002754820936639178,0.003134796238244498,0.003894746841455408,0.004588201766885192,0.004369715968462125,,0.004084734492258068,,0.0033247838890472932,,0.0033437826541275186,0.00414173078749888,,0.0033247838890472932,,0.004274722143060728,0.0044362116462429825,,,0.003894746841455408,0.004417212881162757,0.005129666571672901,0.005604635698679619,0.0051486653367531264,0.004559703619264786,0.00492068015578988,0.005794623349482279,0.005747126436781647,0.006241094328868726,0.0060321079129857045,0.005699629524081016,0.007647002944808652,0.007779994300370501,0.007172033817801935,0.0075995060321078865,0.007884487508311944,0.007504512206706624,0.007495012824166443,0.007760995535290275,,,0.007504512206706624,0.007694499857509284,0.0075425097368670745,0.0075995060321078865,0.007741996770209915,0.007485513441626398,0.007865488743231718,0.00811247268927519,0.007798993065450726,0.009727367721098138,0.010620309679870897,0.01073430227035252,0.01059181153225049,0.010639308444951121,0.011142775719578245,0.011465754725942889,0.01110477818941766,0.011541749786263926,0.01263417877837939,0.013014154079984845,0.013679110857794222,0.013403628764130345,0.013622114562553411,0.013603115797473185,0.013679110857794222,0.01431556948798333,,0.014724042937209055,0.015009024413413112,0.014819036762610453,0.01458155219910716,0.013850099743516657,0.013109147905386241,,0.013869098508597017,,0.01358411703239296,0.013289636173648723,0.014144580602260894,0.014467559608625538,0.014629049111807792,0.015199012064215908,0.015189512681675727,0.015578987365821228,0.015873468224565465,0.015531490453120597,,,0.016319939203951778,0.01662391944523606,,,,,0.016813907096038857,0.01671891327063746,0.016528925619834798,0.016908900921440116,,0.017003894746841514,,0.017526360786548865,,0.016813907096038857,,0.016196447230929972,0.014819036762610453,,,0.015768975016624023,0.015578987365821228,0.016053956492827946,0.01642443241189322,0.017222380545264582,0.017649852759570667,0.017288876223045573,0.01776384535005229,0.017535860169089045,0.017450365726227827,0.018713783604065726,,0.017317374370665977,,,0.016196447230929972,0.01657642253253543,0.017478863873848234,0.01766885152465089,0.01781134226275292,0.016813907096038857,,,,0.01669041512301705,0.016528925619834798,0.016671416357936827,0.017098888572242777,0.017288876223045573,0.017383870048446836,0.017336373135746205,0.016956397834140883,,,0.017336373135746205,0.017383870048446836,0.016528925619834798,,,0.017478863873848234,,0.017925334853234543,,,0.018257813242139233,0.019112757670751407,0.018751781134226313,,,,,0.018998765080269785,0.018381305215161035,,0.018713783604065726,,0.018628289161204507,0.018333808302460404,0.017478863873848234,0.01703239289446192,0.016956397834140883,,,0.016101453405528713,,,,0.015816471929324654,0.015958962667426684,,,,0.015483993540419965,0.01458155219910716,,,,0.014344067635603735,,,0.014344067635603735,,,0.013299135556188902,,,,0.012672176308539975,,0.012539184952978127,0.013014154079984845,,0.012966657167284214,,,0.01263417877837939,,0.011684240524365954,,0.01073430227035252,0.009689370190937687,,0.009936354136981159,,,0.012216205946613483,0.012140210886292446,,0.012121212121212222,0.012444191127576729,0.012368196067255692,0.012396694214876098,0.012824166429182184,,0.013470124441911337,0.014040087394319452,0.014011589246699046,0.014125581837180668,0.013650612710173817,0.013916595421297648,0.014011589246699046,0.01392609480383783,0.014068585541939857,0.014344067635603735,0.014401063930844546,0.013992590481618685,0.0133941293815903,0.013793103448275845,0.014230075045122113,0.0141730787498813,0.013745606535575215,0.013726607770494989,0.013109147905386241,,,0.01283366581172223,0.012824166429182184,0.01304265222760525,0.013080649757765836,0.013118647287926288,0.013384629999050119,0.013204141730787504,0.013061650992685477,,0.013745606535575215,,0.013603115797473185,0.013726607770494989,0.013508121972071787,,0.01398309109907864,,0.014239574427662292,0.015056521326113879,0.014952028118172301,0.015322504037237577,0.015322504037237577,0.01531300465469753,0.015066020708653925,0.014923529970551895,0.015085019473734284,0.015445996010259378,0.01510401823881451,0.015199012064215908,0.015199012064215908,,0.015009024413413112,0.015341502802317936,0.01531300465469753,0.015464994775339604,0.015607485513441634,0.016177448465849748,0.016196447230929972,0.01602545834520754,0.01630094043887155,0.01658592191507561,0.016357936734112365,0.015426997245179154,0.014676546024508423,0.0141730787498813,0.015768975016624023
2019-04-23,0.0,-0.0028132155708210844,,4.6731155661437005e-05,,0.001588859292490319,0.004131034160474723,0.004588999485957285,0.0021963643160895314,,-0.0014953969811674452,,,-0.0018038226085330888,,-0.00014019346698444384,2.8038693396888767e-05,0.00014953969811665153,,-0.0009346231132296698,-0.0022430954717511014,-0.005093695967101282,-0.005280620589747163,-0.006318052245432047,-0.00785083415112859,-0.007103135660544933,-0.00828076078321426,-0.010850974344595555,-0.009037805504930125,-0.007897565306790026,-0.00827141455208192,-0.008645263797373815,,-0.008327491938875699,-0.008402261787934023,-0.007570447217159701,-0.007738679377541034,-0.008953689424739458,,-0.00873872610869669,,-0.009252768820973027,,-0.010140660778541127,-0.010673395953082013,-0.011028552736109228,-0.011692135146502218,-0.01252394971727654,-0.012897798962568435,,-0.014253002476751302,-0.013963269311650074,,,-0.010514510023832888,-0.009206037665311457,-0.009299499976634464,,,-0.007617178372821138,-0.007991027618113032,-0.007224636665264828,-0.006990980886957378,,-0.0056544698350390575,-0.0064021683256227134,-0.00556100752371605,,-0.0056544698350390575,,-0.005187158278424289,-0.0037852236085798505,-0.0038039160708445317,-0.0034300668255526374,,-0.003345950745361971,-0.003458105518949526,-0.0035982989859339697,-0.0037852236085798505,-0.004345997476517626,-0.004018879386887301,-0.0037852236085798505,-0.0044207673255759515,-0.0025141361745876483,-0.002383288938735545,-0.0024487125566615303,,,-0.0013552035141830012,,-0.000981354268891107,,7.476984905832576e-05,,0.001635590448151756,,,0.0003271180896303247,,0.0006075050235992124,0.001822515070797637,0.0018412075330621852,0.0021029020047665247,,0.002476751250058419,0.003598298985933837,,0.0020374783868404066,,,,0.001822515070797637,,-0.0004953502500117901,-0.0007383522594514485,,,-0.0013832422075798901,-0.0015421281368288822,-0.0015421281368288822,-0.0018225150707977698,-0.0011495864292724394,-0.0012804336651245428,,,-0.003299219589700534,-0.003177718584980638,-0.0037197999906538656,-0.003140333660451409,-0.0024954437123231,-0.0023365577830739754,-0.0027851768774241957,-0.002476751250058419,-0.003411374363288089,,-0.002635637179307544,-0.0027384457217627584,-0.0026262909481752036,-0.0030188326557316464,-0.0038973783821674057,-0.0030375251179961945,-0.0019066311509884362,-0.0015421281368288822,-0.0004112341698211238,-0.0002523482405719989,0.0008411608019065302,0.0005140427122762055,3.7384924529096475e-05,0.0002523482405719989,0.0008318145707743225,0.00111220150474321,0.0008598532641712112,0.0006168512547315529,,0.0006075050235992124,0.0017757839151362,0.0023739427076030716,0.0032898733585680607,0.0038786859199027245,0.00311229496705452,0.003373989438758727,0.0029907939623346246,0.0036917612972568437,0.0038319547642412877,0.004925463806719949,0.005364736669937829,0.0047759241086031655,,0.003411374363287956,0.0033833356698910674,0.003514182905743171,0.0026636758727042998,0.003261834665171172,,0.003252488434038964,0.0033646432076265193,0.004532922099163506,0.004878732651058379,0.0047665778774708244,0.004028225618019509,,0.003972148231225731,0.0036730688349922956,0.0036263376793307257,0.0025234824057198562,,0.0026449834104397517,0.0044394597878405,0.0056077386793774876,0.005850740688817146,0.005280620589747163,0.005747932146361931,0.004317958783120604,0.004196457778400842,0.0045703070236926035,0.004925463806719949,0.0056077386793774876,0.0064021683256227134,0.004673115566147951,0.005318005514276259,0.00556100752371605,0.006486284405813247,0.006682555259591469,0.006962942193560356,0.006776017570914475,0.005617084910509828,0.00670124772185615,0.007430253750175257,0.006962942193560356,0.00626197485863827,0.006112435160521485,0.005794663302023368,0.005841394457684938,0.006486284405813247,0.0064021683256227134,0.0059255105378756045,0.005701200990700495,0.005701200990700495,0.005420814056731607,0.0050469648114397124,0.005018926118042824,0.004738539184073936,0.005168465816159608,0.0053273517454085996,0.00554231506145137,0.005280620589747163,0.005233889434085726,0.005364736669937829,0.005589046217112939,0.005719893452965042,0.005794663302023368,0.005645123603906717,0.005318005514276259,0.004747885415206277,0.0033646432076265193,0.002962755268937736,0.0019159773821206439,0.002794523108556403,0.0032244497406420753,0.0030842562736576313,0.003439413056684845,0.0024487125566615303,,,0.0030188326557315133,0.0035328753680078516,0.003476797981214074,0.0038319547642412877,0.0038786859199027245,0.003925417075564295,0.0037665311463151697,0.0037011075283891843,0.0037011075283891843,0.003598298985933837,0.003888032151035065,0.0038973783821674057,0.0034954904434786223,0.0038413009953736283,0.00400018692462262,0.004233842702929938,0.004626384410486381,0.00466376933501561,0.004598345717089492,0.004719846721809388,0.004626384410486381,0.005093695967101282,0.004860040188793832,,0.005140427122762719,0.005168465816159608,0.005233889434085726,0.005243235665217933,0.005299313052011711,0.005495583905789933,0.005514276368054481,0.006374129632225825,0.006504976868077928,0.006579746717136254,0.006589092948268594,0.006467591943548699,0.007402215056778369,0.007561100986027361,0.007346137669984591,0.007738679377540901,0.0075517547548950206,0.007383522594513687,0.007075096967147912,0.0075891396794242495,0.007944296462451463,0.007804102995467019,0.007635870835085687,0.007299406514323021,0.007439599981307465,0.007028365811486474,0.004131034160474723,0.004635730641618721,0.004345997476517493,0.004243188934062278,0.004532922099163506,,,0.0031964110472451866,0.0031496798915836167,0.002869292957614862,0.002757138184027307,0.002757138184027307,0.0022898266274124055,0.0025421748679844043,0.0023832889387354122,0.0024019814009999607,0.00221505677835408,0.0022617879340155168,0.0018972849198559628,,0.0023832889387354122,0.002458058787793738,,0.0021683256226926427,0.0020374783868404066,0.001822515070797637,,0.001158932660404647,0.0009720080377587663,0.0004673115566147685,0.0004673115566147685,0.00027104070283654716,0.0005140427122762055,0.0011308939670077584,0.001411280900976646,0.0010093929622878627,0.0005607738679377753,-0.0007476984905836561,-0.001729052759474763,-0.0018131688396654292,-0.0018225150707977698,-0.0016636291415487777,-0.0017757839151362,,-0.0014206271321089866,-0.002383288938735545,-0.0018505537641946585,-0.0009159306509649887,-0.0012617412028599945,-0.0015608205990934303,-0.000981354268891107,5.6077386793777534e-05,-0.0007009673349222191,-0.0003271180896304575,-0.0006355437169961011,-0.0012617412028599945,-0.000794429646245226,-0.000981354268891107,-0.0011028552736110024,-0.0005794663302023235,-0.0003738492452918945,-0.0006075050235992124,-0.0005140427122763383,-0.0006822748726576709,-0.0008037758773774337,-0.0009159306509649887,-0.00047665778774710904,-0.0005607738679377753,-0.00048600401887944955,-0.0005607738679377753,-0.0006542361792607822,-0.0005514276368054348,-0.0005420814056732271,-4.673115566156982e-05,-0.00018692462264601365,-0.0002523482405719989,-0.00017757839151367314,-0.0005607738679377753,-0.0003458105518950057,-0.0005420814056732271,-0.00044861909435022027,-0.001205663816066217,-0.0017383989906071034,-0.0023365577830739754,-0.0022430954717511014,-0.0013271648207861125,-0.001130893967007891,-0.0007476984905836561,-0.0011215477358755507,-0.001028085424552544,-0.0011963175849338764,-0.0012617412028599945,-0.0013552035141830012,-0.0013925884387120978,-0.0019720547689144213,-0.002663675872704433
2019-04-24,0.0,,-0.0024211045824059346,,-0.0005494045013921118,-0.0007822030189310728,-0.003631656873609034,-0.0033429867118605692,-0.005494045013921251,-0.00846455409771943,-0.011034649731350533,-0.01141643930011453,-0.010420061645047442,-0.010867034798722417,-0.012468688599390987,-0.013623369246384583,-0.013669928949892348,-0.014312452858300123,-0.01309258862639555,-0.012934285634469042,-0.013260203559023666,-0.0132136438555159,-0.011360567655905157,-0.011248824367486414,-0.011621301995548804,-0.011481622885025375,-0.012310385607464478,-0.013753736416206405,,,,,,-0.019219845608023103,-0.01991824116064025,-0.021193977036754196,-0.021408151672890077,-0.02288875024443843,-0.022385905446554083,-0.021734069597444703,-0.021706133775340017,-0.022357969624449397,-0.023587145797055578,-0.022646639786197863,,-0.020663196416765162,-0.01949920382906996,-0.019359524718546534,,-0.01861456946242162,-0.016724245500004585,-0.01578373948914687,-0.015215711106351679,-0.01576511560774379,-0.015122591699336014,,,-0.013679240890593955,,,,,-0.01465699466425796,,-0.013874791645326755,,,,,-0.013167084152008134,,-0.01619346488001555,-0.017236402238590538,-0.018446954529793506,-0.01717121865367956,-0.01651938280457031,-0.015914106658968693,-0.015262270809859445,-0.014517315553734532,,-0.01544850962389064,,-0.017357457467710755,-0.017543696281742082,-0.017431952993323337,,-0.017217778357187324,-0.017413329111920128,-0.01750644851893579,-0.017590255985249846,-0.017543696281742082,-0.017515760459637396,-0.017590255985249846,-0.017376081349113965,-0.0172829619420983,-0.017310897764202988,-0.017459888815428024,,-0.017590255985249846,-0.017590255985249846,-0.01738539328981544,-0.017357457467710755,,-0.01724571417929201,-0.017124658950171793,-0.017553008222443555,-0.01745057687472642,-0.01756232016314516,-0.017553008222443555,-0.017543696281742082,-0.017590255985249846,-0.017590255985249846,-0.017497136578234183,-0.017497136578234183,,-0.017543696281742082,-0.017310897764202988,-0.017376081349113965,-0.01703153954315613,-0.015914106658968693,,-0.016426263397554645,-0.016333143990538982,,,-0.016361079812643668,-0.015634748437921966,-0.017124658950171793,-0.01675218132210927,-0.016780117144213957,,-0.017264338060695224,,-0.01583029919265477,,,-0.016007226065984356,,,-0.017590255985249846,,,,,,,-0.016845300729124935,,,,,-0.016053785769492124,-0.01637970369404688,-0.016929108195438993,-0.016901172373334307,,-0.01675218132210927,,,,-0.016845300729124935,-0.017310897764202988,-0.01703153954315613,,,-0.01703153954315613,,,,,,,-0.017683375392265513,-0.01619346488001555,-0.016146905176507787,,,,,,-0.017590255985249846,,,,,-0.017543696281742082,-0.01782305450278894,,-0.017599567925951454,-0.01777649479928104,,,,,,,-0.017264338060695224,,,,,,,,-0.016798741025617167,,-0.01675218132210927,,-0.017003603721051443,-0.01576511560774379,-0.014805985715482865,-0.015541629030906303,-0.016007226065984356,,,,,-0.01745057687472642,,-0.01740401717121865,,,,-0.01796273361331237,-0.01819553213085133,-0.01782305450278894,,,,-0.01777649479928104,,-0.017459888815428024,,-0.017497136578234183,,,,-0.017636815688757614,-0.01796273361331237,-0.018186220190149725,-0.018642505284526305,-0.0205700770097495,,,-0.020383838195718304,-0.020383838195718304,-0.021315032265874546,-0.021408151672890077,-0.021706133775340017,,-0.022125171106910303,-0.021734069597444703,-0.021985491996386875,-0.022106547225507225,-0.02192030841147603,,-0.02165957407183225,,,,,,,-0.02229278603953842,-0.02215310692901499,-0.02229278603953842,-0.02229278603953842,-0.022395217387255688,-0.02187374870796813,-0.022246226336030656,-0.02229278603953842,,-0.021315032265874546,-0.020821499408691675,-0.02124053674026196,-0.020104479974671446,-0.020262782966598086,,,-0.019638882939593393,-0.019638882939593393,-0.01944333218486059,-0.019732002346609056,-0.020393150136419912,-0.02084943523079636,-0.02070975612027293,-0.019825121753624587,,-0.019871681457132483,-0.019219845608023103,-0.020020672508357387,-0.020476957602733967,,-0.02012310385607466,,,-0.020383838195718304,-0.020290718788702772,-0.020104479974671446,-0.02031865461080746,-0.02019759938168711,-0.02005792027116368,-0.020151039678179345,-0.02025347102589648,,-0.021454711376397977,-0.0217806293009526,-0.02209723528480562,-0.021594390486921404,,,-0.022516272616375906,-0.022618703964093177,-0.02266526366760094,,-0.02283287860022906,,-0.02150127107990574,-0.02187374870796813,,-0.02187374870796813,-0.02150127107990574,-0.02075631582378083,,,,,-0.02136159196938231,-0.02164095019042917,-0.021687509893936936,,-0.021827189004460366,-0.021966868114983794,,-0.022516272616375906,-0.02243246515006185,,-0.022525584557077514,-0.02271182337110871,-0.023829256255296145,,-0.02466733091843672,-0.024676642859138193,-0.024620771214928824,-0.024741826444049174,-0.02503980854649911,,,-0.024592835392824138,-0.024574211511421057,-0.024779074206855465,-0.024574211511421057,-0.024658018977735115,-0.02458352345212266,-0.024574211511421057,,-0.024760450325452252,-0.02466733091843672,-0.024518339867211685,-0.024648707037033507,-0.024266917468269512,-0.024387972697389862,-0.025132927953514773,-0.025421598115263108,-0.025654396632802202,-0.025691644395608493,,-0.026064122023670883,-0.02654834294015215,-0.02718155490785832,-0.027973069867491,-0.027898574341878545,-0.02755403253592071,-0.02690219668681146,-0.02639003994822551,-0.02634348024471774,-0.026697333991377054,-0.027107059382245866,-0.027647151942936373,-0.027526096713816024,-0.027907886282580154,-0.028671465420108146,-0.0291370624551862,-0.029565411727458094,-0.029071878870275354,-0.02909981469238004,-0.030785275959362667,-0.031148441646723583,-0.0314650476305766,-0.032433489463539
2019-04-25,0.0,,,-0.001491531947652051,-0.004041570438799093,,,,0.0003849114703617402,0.0,-0.0014530408006158222,,-0.0012509622786758608,-0.0010200153964588987,-0.0006254811393379304,,,,,-0.0016358737490377378,,0.0010585065434949906,,-0.00028868360277137353,-0.0009622786759046239,-0.0008564280215550291,0.00012509622786764077,0.0,-0.0010585065434949906,-0.0006062355658198844,-0.0012028483448806775,-0.0013086989992301355,,,-0.0023864511162433088,-0.003175519630484972,,,-0.004493841416474199,-0.005100076982294083,-0.005225173210161724,-0.0052925327174749535,-0.005205927636643542,-0.005388760585065456,-0.005966127790608204,,,-0.007217090069284064,-0.007698229407236308,-0.007457659738260254,-0.007217090069284064,-0.006081601231716753,-0.0054561200923788225,-0.003945342571208589,-0.0042340261739799625,-0.002983063895304102,-0.00289645881447269,-0.0029157043879907358,-0.003367975365665979,-0.0033391070053888413,-0.003541185527328666,,-0.005581216320246327,,,,,,,,-0.0037047729022325355,-0.004330254041570466,,-0.005003849114703579,-0.004522709776751336,,,-0.003772132409545765,-0.003011932255581239,-0.002646266358737545,-0.0021651270207853016,-0.0020977675134719355,-0.002299846035411897,-0.002261354888375668,-0.0018090839107005618,-0.004031947652040001,-0.005013471901462671,-0.005581216320246327,,,-0.006129715165511937,-0.006351039260969944,,-0.0033294842186297503,-0.0023575827559661716,-0.001645496535796829,-0.0017994611239414704,-0.001472286374134005,-0.0016551193225557838,-0.0007409545804464798,-0.0020207852193996146,-0.0008083140877598459,-0.00014434180138568677,0.0003849114703617402,-0.0006447267128561131,-0.001472286374134005,-0.002694380292532728,-0.0027136258660507744,-0.0020977675134719355,-0.0012028483448806775,-0.0015877598152425545,0.0007986913010007545,0.0007698229407236171,0.0007794457274827085,0.0007120862201693424,0.0007986913010007545,0.0002694380292531908,-0.0006735950731332505,,-0.00026943802925332756,-0.0005869899923018385,-0.0017994611239414704,,-0.0019919168591224774,-0.0021170130869899812,-0.001087374903772128,-0.0006062355658198844,0.00028868360277137353,,0.0009622786759044872,0.0007698229407236171,,,,,-0.00031755196304851085,,0.000529253271747427,0.0003079291762894195,-0.0001732101616628241,-0.00015396458814477814,0.00028868360277137353,4.811393379518334e-05,,0.000529253271747427,0.0006639722863741591,0.0006254811393379304,0.0008660508083141205,0.0011547344110854941,0.0012413394919169062,0.0007217090069284338,,0.0011547344110854941,0.00041377983063887753,0.00033679753656655687,0.0005773672055427471,,-0.00045227097767510624,,,-7.69822940723207e-05,-0.0001732101616628241,,-0.0005100076982293809,-0.0007986913010007545,-0.0008660508083141205,,-0.001106620477290174,-0.0012509622786758608,-0.0008660508083141205,-0.0014049268668206388,-0.0012798306389529982,,-0.0010969976905312194,-0.0012028483448806775,-0.0012509622786758608,,,,-0.0025019245573518582,-0.002646266358737545,-0.002646266358737545,-0.0022132409545804845,-0.0028868360277135986,,-0.0024249422632794007,-0.0020207852193996146,-0.002174749807544256,,,,,-0.0018283294842186078,,-0.0026173979984604077,-0.0020207852193996146,-0.0024249422632794007,-0.002530792917628996,-0.0020207852193996146,,-0.002694380292532728,-0.0033294842186297503,-0.003175519630484972,-0.0031274056966897885,-0.003367975365665979,,,,,-0.0028868360277135986,,-0.0023864511162433088,,-0.002646266358737545,,-0.003175519630484972,-0.003367975365665979,-0.002694380292532728,-0.0029060816012317814,,-0.003079291762894605,-0.0028002309468821863,-0.0024826789838336754,-0.0024249422632794007,-0.0026270207852193625,-0.0031081601231717428,-0.0036374133949191698,,-0.003541185527328666,-0.0034160892994611622,,-0.0032717474980754756,-0.003598922247882941,-0.003367975365665979,-0.0032717474980754756,-0.0031947652040031547,-0.003512317167051529,,-0.002819476520400369,-0.002578906851424179,-0.002983063895304102,-0.003079291762894605,,,-0.002598152424942225,,,,-0.002434565050038492,,,-0.003079291762894605,,-0.0028868360277135986,-0.003560431100846849,,-0.003175519630484972,-0.00289645881447269,-0.0038491147036182225,,,,,,-0.0056774441878368305,,-0.0056774441878368305,,-0.0060623556581985705,-0.006351039260969944,-0.006784064665127004,,-0.007217090069284064,-0.006880292532717508,,,,,-0.008179368745188688,-0.007986913010007682,,-0.008400692840646696,-0.009103156274056947,,-0.008458429561200971,,-0.009035796766743718,,-0.009247498075442635,,,-0.01068129330254041,-0.01024826789838335,-0.010325250192455808,-0.010007698229407296,-0.010334872979214762,-0.010536951501154723,-0.01071978444957664,-0.010777521170130913,-0.01018090839107012,-0.009574672825250236,-0.009497690531177778,,-0.008564280215550429,,-0.008852963818321803,,-0.009805619707467335,-0.009719014626635923,,-0.011893764434180179,-0.011836027713625904,-0.011518475750577394,,-0.012153579676674416,-0.011614703618167896,-0.011556966897613622,-0.01068129330254041,-0.010315627405696717,-0.01024826789838335,-0.009853733641262519,-0.009959584295611976,-0.009892224788298747,-0.010007698229407296,,-0.009911470361816792,-0.009786374133949153,-0.010171285604311029,-0.010007698229407296,-0.01029638183217867,-0.010334872979214762,-0.010469591993841494,-0.010517705927636678,,-0.010844880677444144,,-0.0117397998460354,-0.011364511162432615,-0.011528098537336485,-0.011566589684372576,-0.011961123941493408,-0.012461508852963835,-0.012480754426481881,-0.012509622786759017,-0.01284642032332571,-0.013962663587374977,-0.014193610469592076,-0.014867205542725189,,,-0.014145496535796756,-0.013375673595073138,-0.01345265588914546,-0.012653964588144705,-0.013135103926096948,-0.01216320246343337,-0.011547344110854531,-0.010315627405696717,-0.009613163972286329,-0.008756735950731299,-0.008660508083140932,-0.009911470361816792,-0.00981524249422629,-0.009651655119322557,-0.010498460354118631,-0.01107582755966124,-0.011258660508083157,-0.010777521170130913,-0.010469591993841494,-0.010902617397998417,-0.010585065434950044,-0.01080638953040805,-0.011133564280215516,,-0.01068129330254041,-0.010267513471901532,-0.010392609699769037,-0.010585065434950044,-0.012317167051578148,-0.012625096227867567,-0.013154349499615131,-0.013115858352578903,-0.012981139337952308,-0.012788683602771437,-0.012769438029253254,-0.01310623556581981,-0.015117397998460335,-0.016224018475750644,-0.01717667436489604,-0.01745573518090846
2019-04-26,0.0,,,,0.002691723689140385,0.0010747175169096338,-0.0018930803967580315,-0.0038650391433810802,-0.0052454102660172,,-0.00961329888978717,-0.011003529806156452,-0.011141566918420023,-0.012541657628522326,-0.015075624617932958,-0.01411922462582085,,-0.013862869988759755,,-0.010273905069905954,-0.009307645284060683,-0.007966713336356932,-0.006497604070122773,-0.00726666798130578,,,-0.01016544733884159,-0.009682317445919025,,,,,,-0.011624696811342728,,,-0.013133245252509255,-0.015893987497781495,-0.01678136893376189,,,-0.018654729743053735,-0.019137859635976442,-0.01927589674824001,-0.01941393386050358,-0.01761945140107661,-0.018556131805722534,-0.0190491214923784,,-0.021346453432194122,,-0.023486028672280085,-0.022697245173630896,,-0.022480329711502448,-0.02231271321803939,-0.02240145136163743,,-0.024797381238784492,,-0.024550886395456557,-0.02491569876358188,-0.02521149257557534,,-0.024619904951588414,-0.024964997732247408,,-0.02604957504289006,-0.026838358541539254,,,,-0.028415925538837636,-0.02851452347616884,-0.029648399755477027,-0.02851452347616884,,-0.027301768846995634,-0.02690737709767111,,,,-0.029500502849480293,-0.029007513162824565,-0.03068367809745415,-0.030782276034785352,-0.03362189662992247,-0.034933249196426736,-0.035613574964011706,-0.035761471870008436,-0.03640235846266089,-0.03664885330598883,,,-0.03669815227465436,-0.03640235846266089,,,-0.03837431720928394,,,,,,-0.03692492753051597,,-0.034252923428841904,-0.03492338940269371,,-0.03492338940269371,,,-0.032369702825816894,-0.03225138530101951,,-0.03359231724872312,-0.03372049456725367,-0.03310918735580056,-0.032606337875411666,-0.030880873972116415,-0.03152176056476901,-0.03307960797460121,-0.03302044921220252,-0.03372049456725367,-0.0339275502356491,-0.03457829662203458,,-0.03295143065607067,,-0.03152176056476901,-0.03183727396422866,-0.03166965747076574,-0.03181755437676248,-0.03206404922009027,-0.03208376880755646,,-0.03238942241328308,-0.03199503066395842,-0.032034469838890925,-0.03139358324623846,-0.03127526572144108,-0.033178205911932275,,,,-0.034528997653369045,-0.035120585277355974,-0.03679675021198556,,,-0.03521918321468718,,-0.03443039971603785,-0.03482479146536251,,-0.03448955847843654,-0.03457829662203458,-0.03521918321468718,,-0.03502198734002478,-0.03514030486482216,-0.035120585277355974,-0.03521918321468718,-0.03620516258799863,-0.03541637908934944,,,-0.036037546094535716,-0.03574175228254225,-0.03556427599534617,-0.035248762595886524,-0.03541637908934944,,,,,,,-0.03926169864526433,-0.039310997613929866,-0.03926169864526433,-0.0391138017392676,,,-0.039182820295399455,-0.0393602965825954,-0.03948847390112595,-0.03940959555126107,-0.03873912957740926,-0.03837431720928394,-0.03817712133462168,-0.03827571927195274,-0.037684131647965954,,-0.037684131647965954,-0.037191141961310084,-0.03699394608664782,-0.037339038867306815,-0.03750665536076987,,-0.037191141961310084,-0.037191141961310084,,-0.03804894401609113,-0.03807852339729048,-0.03817712133462168,-0.03827571927195274,-0.03879828833980795,,-0.03817712133462168,-0.03794048628502691,-0.03682632959318491,,,-0.0364417976375934,-0.036579834749856974,-0.0367868904182524,,,-0.037191141961310084,-0.036500956399992096,-0.036599554337323294,-0.03655025536865763,-0.037151702786377715,-0.037684131647965954,,,-0.039163100707933135,-0.0393602965825954,-0.03964623060085584,-0.04014908008124473,-0.039458894519926596,-0.03926169864526433,-0.03926169864526433,,-0.03891660586460534,-0.0391138017392676,-0.040070201731379713,,-0.039163100707933135,-0.039458894519926596,,-0.03877856875234163,-0.038670111021277404,-0.038571513083946206,,-0.03914338112046695,,-0.039458894519926596,,,-0.040050482143913525,,-0.038670111021277404,,-0.038571513083946206,-0.03886730689593967,-0.03909408215180142,,,,,-0.039754688331920064,,,-0.03876870895860861,,-0.03804894401609113,-0.03778272958529701,-0.03748693577330355,,,-0.03847291514661515,,-0.03921239967659881,-0.03924197905779815,-0.039685669775788204,-0.03965609039458886,-0.040494172861903724,-0.04034627595590699,-0.04074066770523152,,-0.040789966673897185,-0.042061880065468946,-0.04244641202106045,-0.04044487389323819,,,-0.040494172861903724,,,-0.03883772751474032,-0.037684131647965954,-0.036629133718522645,-0.037092544023979025,-0.038108102778489826,-0.03741791721717184,-0.0367868904182524,-0.03648123681252591,-0.03824613989075339,-0.03809824298475666,-0.03778272958529701,-0.037467216185837364,-0.037575673916901586,-0.03780244917276334,-0.03809824298475666,-0.03889688627713902,-0.03965609039458886,-0.03965609039458886,,-0.03876870895860861,-0.0393602965825954,,-0.038670111021277404,,-0.039754688331920064,,,,-0.03921239967659881,-0.03894618524580469,-0.03860109246514555,,-0.03841375638421645,,,-0.03896590483327087,-0.038571513083946206,-0.03817712133462168,-0.03896590483327087,-0.038975764627004035,,-0.03758553371063475,-0.03788132752262822,-0.03763483267930028,-0.037240440929975756,-0.03667843268718817,,-0.036855908974384254,-0.03730945948610747,-0.03769399144169897,-0.03788132752262822,-0.039163100707933135,-0.0395574924572578,,-0.03995188420658233,-0.0393602965825954,-0.03906450277060207,-0.03938987596379474,-0.03862081205261188,-0.038630671846344895,-0.03896590483327087,-0.038670111021277404,-0.03906450277060207,-0.03865039143381122,-0.03906450277060207,-0.03837431720928394,-0.03896590483327087,-0.03942931513872725,,,-0.03906450277060207,-0.03817712133462168,-0.038847587308473486,,-0.03855179349648002,-0.037181282167577066,-0.03693478732424913,-0.03699394608664782,-0.03682632959318491,-0.03643193784386024,-0.03656997495612395,-0.03684604918065109,-0.03763483267930028,-0.037368618248506166,-0.037240440929975756,-0.037467216185837364,-0.03773343061663148,-0.03795034607876007,-0.03728973989864129,-0.03725030072370878,-0.037191141961310084,-0.037181282167577066,-0.03698408629291466,-0.036392498668927874,-0.03525862238961955,-0.03472619352803131,-0.03321764508686478,-0.03261619766914469,-0.03246830076314796
2019-04-29,,,-99.084,,,-99.16,-99.08,-98.938,-98.64,-98.745,-98.778,-98.78,,-99.095,,,-98.97,-99.064,-99.085,-99.015,-98.891,-98.82,-98.694,-98.67,-98.569,-98.51,-98.531,-98.35,-98.348,-98.17,,-98.502,-98.735,,,,-98.83,-98.802,-98.55,-98.5,,-98.39,-98.4,-98.35,,-98.124,-97.897,-98.107,-98.118,-98.144,,,-98.113,-98.12,,,-97.952,-97.93,,,-97.89,-97.97,-98.1,,,,-98.115,-98.105,-98.03,-97.99,-98.0,,-98.03,,,-98.038,,-97.96,-97.91,-98.059,-98.08,,-97.99,-97.921,-97.92,-97.956,-97.942,-97.894,-97.84,-97.995,-97.855,-97.95,-97.88,-97.96,-97.947,-97.96,-97.85,-97.89,,,-97.94,,-97.953,-97.939,-97.859,-97.832,-97.85,,-97.888,-97.876,-97.878,-97.935,,-98.0,-97.995,-98.028,-98.18,-98.237,,,-98.43,-98.483,-98.485,-98.59,,,-98.633,,-98.71,-98.639,,-98.4,,-98.388,-98.325,,,-98.365,,-98.393,-98.29,-98.38,-98.405,,-98.355,,-98.353,,-98.44,-98.46,,,,,-98.62,,,,,,,,-98.68,-98.6,,,,,,,-98.55,-98.59,-98.595,,,,,,,,-98.587,,,-98.462,,-98.502,-98.53,-98.53,,,-98.575,-98.58,-98.69,-98.75,-98.645,-98.617,-98.638,-98.727,,,-98.823,,-98.705,-98.7,-98.67,,,,-98.62,,,-98.642,,,,,,,-98.59,-98.62,,-98.7,-98.65,-98.62,,,,,,,-98.55,,-98.635,,,-98.61,-98.58,,,-98.58,-98.57,,,,,,-98.555,-98.505,-98.48,,,,,,-98.565,-98.58,,-98.56,,,-98.7,-98.675,,,,-98.68,-98.64,-98.62,,,,,,,,,,,,,,,,,,,,,-98.4,-98.41,,-98.49,,-98.53,-98.5,,,-98.493,,-98.486,-98.45,,,-98.52,,-98.47,-98.45,,-98.39,,,-98.31,-98.3,-98.33,-98.29,-98.335,,,-98.335,-98.289,-98.24,,-98.15,,-98.084,,,-98.035,,-97.88,-97.9,-97.94,,-98.055,,-98.07,,,-98.03,,-98.07,-98.054,,-98.055,,-98.1,,-98.01,,-98.0,,-98.02,,-98.01,-97.89,-97.91,,,-97.91,,-98.027,-98.062,-98.042,-98.06,-98.01,-98.068,-98.15,-98.171,-98.151,-98.168,-98.173,-98.187,,-98.155,-98.17,-98.15,-98.153,-98.195,-98.209,-98.188,-98.201,-98.165,-98.137,-98.134,-98.141,-98.143,,-98.106,-98.096,-98.044
2019-04-30,0.0,0.0019373916590191898,,,-0.003344549811359119,-0.0052003670847353,-0.004996431120628071,-0.0057102069950034475,-0.0061996533088609146,-0.0052003670847353,-0.008239012949933648,,-0.010604670133577977,,-0.009483022330987995,,,-0.011257265218721314,-0.01140002039359636,-0.010604670133577977,-0.011909860303864508,,,-0.011828285918221644,,-0.013735087182624598,-0.014622208626491258,-0.014122565514428378,-0.01420413990007124,,-0.01540736208830423,-0.015692872438054322,-0.015295197308045275,,,-0.01693688181910867,-0.017028653002956945,-0.017028653002956945,-0.017885184052207515,-0.017864790455796833,,-0.01704904659936777,,,-0.019720607729173015,-0.020638319567655623,-0.0221984296930763,-0.023993066177220298,-0.026164984194962663,-0.026746201692668406,-0.02804119506474967,-0.028377689405526534,-0.028398083001937358,-0.025767309064953472,-0.02441113490364017,-0.0235546038543896,,-0.022157642500254794,,-0.022443152850005033,-0.021719180177424243,,-0.02075048434791472,-0.018966044661976135,-0.018782502294279586,,-0.019169980626083365,-0.019394310186601274,-0.019373916590190596,-0.019373916590190596,,-0.019577852554297823,,-0.020210054043030484,,-0.02149485061690619,-0.02246354644641571,-0.02475782604262259,-0.025910064239828664,-0.02549199551340879,-0.023656571836443287,-0.023371061486693052,-0.022993779953094682,-0.022636892015906997,,,-0.020393596410727032,-0.02075048434791472,-0.019679820536351512,-0.019322932599163824,-0.019424900581217364,-0.02011828285918221,-0.020261038034057256,-0.02163760579178138,-0.023432242275925233,-0.023982869379014886,-0.02460487406954213,-0.02592026103803393,-0.026929744060364958,-0.02767411032935657,-0.02647088814112358,-0.025991638625471526,-0.027480371163454607,-0.027643519934740478,-0.027796471907820936,-0.0249821556031405,-0.025339043540328333,-0.026797185683695324,-0.02673600489446314,-0.025828489854185656,-0.02482920363006004,-0.02496176200672982,-0.024502906087488445,-0.023228306311818006,-0.02259610482308549,-0.02202508412358516,-0.021943509737942152,-0.02199449372896907,-0.02240236565718353,-0.02196390333435298,-0.021800754563067105,-0.02070969715509322,-0.021902722545120795,-0.022259610482308484,-0.021556031406138373,,,-0.02115835627612918,-0.020322218823289436,-0.01962883654532474,-0.019690017334556924,-0.02090343632099518,-0.022249413684103072,-0.022687876006933765,-0.022687876006933765,-0.02400326297542571,-0.026022229020087616,-0.02625675537881094,-0.024615070867747398,-0.022891811971040996,-0.022473743244621123,-0.02222902008769239,-0.021923116141531473,-0.023197715917201912,-0.02352401345977351,-0.02291220556745182,,-0.022738859997960537,-0.022687876006933765,-0.02314673192617514,-0.02457428367492604,-0.023962475782604208,,-0.024166411746711434,,-0.024268379728765124,-0.024370347710818665,-0.025084123585194188,,,-0.024492709289283033,-0.024298970123381215,-0.02467625165697958,-0.025033139594167416,,-0.025390027531355105,-0.02569593147751602,-0.02587947384521257,-0.02661364331599877,-0.026307739369837855,-0.026103803405730482,-0.025797899459569562,,,-0.026715611298052316,,-0.02584888345059648,,,-0.025767309064953472,-0.02457428367492604,-0.02460487406954213,,-0.025084123585194188,-0.025593963495462335,-0.025797899459569562,,,-0.02595085143265002,-0.026001835423676938,-0.02661364331599877,-0.02623636178240026,-0.026379116957275305,,,-0.02631793616804312,-0.02623636178240026,-0.026888956867543452,,,,-0.02712348322626692,-0.027215254410115193,-0.027837259100642296,,,-0.02661364331599877,-0.02636892015907004,-0.026307739369837855,,-0.02499235240134591,-0.025441011522381877,,,,-0.02467625165697958,,,-0.024064443764657894,,-0.024523299683899123,,,-0.02467625165697958,-0.02524727235648006,-0.025430814724176607,-0.02569593147751602,-0.025604160293667747,-0.025797899459569562,-0.026511675333945085,-0.02661364331599877,-0.026715611298052316,-0.02673600489446314,-0.026919547262159546,-0.02712348322626692,-0.027735291118588752,,,-0.02844906699296413,-0.02825532782706217,-0.027867849495258386,-0.027939227082695983,-0.027735291118588752,-0.027225451208320463,-0.02732741919037415,-0.027062302437034735,-0.02767411032935657,-0.02806158866116035,,-0.028347099010910443,-0.02883654532476791,-0.02936677883144688,-0.029784847557866753,,,,,-0.029295401244009287,-0.029376975629652295,-0.029376975629652295,-0.029285204445804017,-0.029478943611705836,,-0.02936677883144688,-0.0296726827776078,-0.029713469970429156,,-0.03059039461609055,-0.030386458651983174,,,,-0.031141021719180057,,-0.03099826654430501,-0.03099826654430501,-0.03089629856225132,-0.031130824920974787,-0.03082492097481387,-0.03078413378199237,-0.03069236259814409,-0.03069236259814409,-0.030284490669929633,-0.030233506678902716,-0.03006016110941158,-0.0300397675130009,-0.030671969001733412,-0.031120628122769375,-0.030906495360456733,-0.030855511369429964,,-0.03099826654430501,-0.030233506678902716,-0.03011114510043835,-0.030773936983786956,-0.029947996329152623,-0.029825634750688258,,-0.02910166207810747,,-0.028897726114000093,,-0.02985622514530435,,-0.029438156418884334,-0.028907922912205505,-0.02951973080452734,-0.02913225247272356,-0.028856938921178736,-0.029009890894259194,-0.029468746813500424,-0.029285204445804017,-0.03089629856225132,-0.031242989701233743,,-0.029162842867339653,-0.029162842867339653,-0.0285000509839909,-0.0282451310288569,-0.027500764759865286,-0.02676659528907923,-0.025553176302640975,-0.025787702661364296,,,-0.02549199551340879,,,,-0.025084123585194188,-0.025573569899051653,-0.025390027531355105,-0.02528805954930142,-0.02482920363006004,-0.02447231569287235,-0.02477821963903327,-0.024788416437238683,-0.0247272356480065,,-0.0247272356480065,-0.024584480473131307,-0.02430916692158648,-0.02348322626695215,-0.02330988069746087,-0.02370755582747006,-0.02381972060772916,-0.023615784643621785,-0.02326909350463951,-0.02404405016824707,-0.023411848679514555,-0.022810237585398133,-0.02202508412358516,-0.022290200876924574,-0.022239216885897802,-0.022840827980014224,-0.023044763944121454,-0.023401651881309143,-0.023126338329764316,-0.022494136841031805,-0.02166819618639747,-0.02258590802488008,-0.022942795962067913,-0.022636892015906997,-0.02203528092179043,-0.021974100132558246,-0.021851738554093877,-0.021280717854593546,-0.021902722545120795,-0.021821148159477787,-0.021770164168451015,-0.02204547771999584,-0.022167839298460206,-0.021362292240236554,-0.021933312939736885,-0.021780360966656427,-0.02131130824920964,-0.022300397675129986,-0.022647088814112263,-0.022524727235647895,-0.02243295605179962,-0.022494136841031805,-0.022677679208728353,-0.022014887325379748,-0.022076068114611932,-0.021892525746915383,-0.021729376975629655,-0.021698786581013565,-0.02206587131640652,-0.021545834607933106,-0.020913633119200446
2019-05-01,0.0,,,-0.0009071476982430873,-0.0008862937281685831,-0.000938428653354918,-0.0008237318179449218,,-0.0018247223815233528,-0.001981127157082506,-0.004838121057296268,,-0.0074031593764663775,-0.005995516396434,-0.0036807257181585363,-0.0022522287680518034,-0.0016683176059642,-0.0012303842343985715,-0.0015119128304050468,-0.0020958239924926503,-0.0029091288254000976,-0.0020749700224179978,,-0.004587873416401623,-0.006026797351545831,-0.0054845941296073845,-0.006933945049788919,-0.0068296751994161,-0.0076638340023982,-0.00813304832907566,-0.00922788175798973,-0.008915072206871424,-0.010677232678171117,-0.010583389812835624,-0.011876335957457858,-0.010791929513581112,,-0.007476148271727217,-0.006954799019863423,-0.007674260987435527,,-0.006673270423856947,-0.007444867316615387,-0.0084979928053803,-0.008237318179448477,-0.008153902299150164,-0.008737813461237767,-0.00760127209217454,-0.007590845107137213,-0.0074031593764663775,,-0.006110213231843997,-0.006694124393931452,-0.0060685052916949886,-0.006381314842813146,-0.006694124393931452,-0.006350033887701315,-0.008112194359001155,-0.009436421458735219,-0.009311297638287896,-0.010552108857723794,-0.0125332360148063,-0.012595797925029961,-0.012460247119545461,-0.01219957249361349,-0.011281997810333224,-0.01153224545122772,-0.010552108857723794,,-0.009749231009853525,-0.01153224545122772,-0.012877326521036436,-0.011980605807830676,-0.011938897867681519,-0.01112559303477407,-0.010875345393879425,-0.011907616912569688,-0.011542672436265047,-0.012616651895104613,,,-0.01423283457588233,,-0.014514363171888806,-0.014921015588342603,-0.016193107762890332,,-0.016443355403784977,-0.016234815703039487,-0.01766331265314637,-0.018007403159376507,-0.018539179396277628,-0.019050101663104096,-0.01922736040873775,-0.018851988947395933,-0.01802825712945101,-0.018007403159376507,-0.018445336530942134,-0.019258641363849582,-0.019571450914967887,-0.01822636984515932,-0.018549606381314806,-0.01840362859079298,-0.01872686512694861,-0.01940461915437156,,-0.020895678014702098,-0.020489025598248303,-0.01995724936134718,,-0.019811271570825354,-0.02069756529899379,,,-0.020582868463583794,-0.019446327094520564,-0.019936395391272677,-0.020384755747875485,-0.019779990615713523,-0.019748709660601695,-0.020082373181794504,-0.020071946196757177,-0.02059329544862097,-0.020176216047129995,,-0.020071946196757177,-0.020436890673061966,-0.020436890673061966,-0.020124081121943662,-0.019779990615713523,-0.019759136645638872,-0.01736093008706539,-0.01739221104217722,-0.017569469787810876,-0.01759032375788538,-0.018101246024711998,-0.018153380949898334,-0.01829935874042016,-0.01940461915437156,-0.019477608049632396,-0.019154371513476914,-0.019258641363849582,-0.0185287524112403,-0.019571450914967887,-0.01913351754340241,-0.019373338199259727,-0.01918565246858874,-0.019289922318961414,-0.019477608049632396,-0.019216933423700573,-0.019550596944893382,-0.019905114436160845,-0.020489025598248303,-0.019852979510974363,-0.019707001720452536,-0.01954016995985606,-0.02027005891246549,-0.020749700224180125,-0.020801835149366607,-0.02179239872790786,-0.022251186069547995,-0.023054063917418263,-0.022345028934883486,-0.02323132266305192,-0.024242740211667824,-0.024347010062040642,-0.024034200510922338,,-0.0245242688076743,-0.025233303790209077,-0.02570251811688654,-0.02499348313435176,-0.024419998957301483,-0.024211459256555996,-0.024034200510922338,-0.02392993066054952,,-0.023304311558312907,-0.02356498618424488,-0.02379437985506487,,,-0.0253584276106564,-0.02566081017673738,-0.025681664146812035,-0.025191595850059922,-0.02543141650591739,,-0.02622386736875033,-0.026307283249048498,-0.026140451488452166,-0.026849486470986943,-0.02669308169542779,-0.02643240706949582,-0.026640946770241456,-0.026912048381210606,-0.027058026171732433,-0.0274542516031489,-0.02809029769042284,-0.028350972316354663,-0.028173713570721008,-0.028549085032062976,-0.028914029508367616,-0.029101715239038598,-0.02876805171784579,-0.02736040873781341,-0.026515822949794134,-0.026599238830092298,-0.026328137219123148,,-0.024649392628121623,-0.025546113341327385,-0.026109170533340335,-0.026640946770241456,-0.02538970856576823,,-0.02643240706949582,-0.026745216620614125,-0.02562952922162555,-0.026745216620614125,,-0.025577394296439217,-0.025754653042072872,-0.02669308169542779,,,,,-0.026015327668004844,-0.025441843490954567,-0.02583806892237104,-0.026348991189197653,-0.02779834210937904,,,,-0.02656795787498047,-0.027287419842552573,,-0.026849486470986943,-0.02725613888744074,-0.028100724675460168,-0.027245711902403415,-0.027370835722850737,-0.02690162139617328,,-0.026234294353787657,-0.026515822949794134,-0.02511860695479908,-0.02503519107450077,-0.024743235493457114,,-0.024274021166779656,-0.024034200510922338,-0.02497262916427711,-0.026119597518377512,-0.025337573640581895,-0.025368854595693727,-0.025462697461029218,,,-0.025598248266513718,-0.024555549762786132,-0.024555549762786132,,,-0.02476408946353162,-0.025076899014649927,,-0.025598248266513718,-0.025285438715395413,-0.02570251811688654,-0.026484541994682302,-0.02585892289244569,-0.025712945101923863,-0.023617121109431212,,-0.022574422605703626,-0.022345028934883486,-0.023408581408685725,-0.024034200510922338,-0.0246598196131588,-0.024117616391220502,,-0.023825660810176702,-0.024138470361295006,-0.023043636932381085,-0.022449298785256304,-0.02156300505708772,-0.02233460194984616,-0.022782962306449113,-0.022772535321411786,-0.022209478129398837,-0.021635993952348706,-0.021406600281528566,-0.021531724101975888,-0.021448308221677724,-0.02275168135133728,-0.022115635264063346,-0.02365882904958037,-0.024691100568270632,-0.024910067254053446,-0.024545122777748805,-0.025650383191700203,-0.02606746259319118,-0.025973619727855685,-0.025942338772743857,-0.026119597518377512,-0.026276002293936666,,-0.028674208852510295,-0.028204994525832836,,-0.02872634377769663,-0.028705489807622126,-0.029529221625567047,-0.02919555810437409,,,-0.02909128825400142,-0.02886189458318128,-0.027944319899901014,-0.028309264376205654,-0.026849486470986943,-0.02570251811688654,-0.025285438715395413,-0.025108179969761755,-0.024555549762786132,-0.02549397841614105,-0.02552525937125288,-0.024545122777748805,-0.024691100568270632,,-0.027235284917366088,,,-0.026828632500912438,,-0.027016318231583424,,-0.027058026171732433,-0.02726656587247792,-0.027370835722850737,-0.027714926229080873,-0.02766279130389454,-0.02713101506699342,-0.02752724049840989,-0.027016318231583424,-0.027058026171732433,-0.02716229602210525,,-0.028111151660497345,-0.028382253271466495,-0.029247693029560574,-0.02995672801209535,,-0.030540639174182805,-0.03046765027892182,-0.03033209947343732,-0.030582347114331963,-0.03083259475522661,-0.03119753923153125,-0.031635472603096876,-0.03204212501955068,-0.03225066472029616,-0.03289713779260728,-0.032344507585631656,-0.0334289140295084,-0.03335592513424741,-0.03362702674521656,-0.034221364892341344,-0.03346019498462023,-0.03299098065794277,-0.03289713779260728,-0.033022261613054604,-0.034513320473385144,-0.034200510922266836,-0.03529534435118091,-0.03502424274021161,-0.0350763776653981,-0.03464887127886979,-0.0346905792190188,-0.03491997288983894,-0.034565455398571476,-0.03510765862050993,-0.03626505395964751,-0.036775976226474126,-0.03762056201449355,-0.03817319222146918,-0.03992492570773169
2019-05-02,0.0,,-2.1949078138822977e-05,-0.0006035996488148246,0.004598331870061424,0.006420105355574997,0.00724319578577696,0.006881035996488096,0.007923617208077197,0.00971246707638269,0.00931738366988575,,0.005761633011413427,0.0055640913081649555,0.008889376646180886,0.008230904302019315,0.007023705004389822,,0.0090869183494292,0.00875768217734857,0.008724758560140492,0.00875768217734857,0.007374890254609274,,0.005333625987708406,0.005959174714661898,0.006365232660228252,0.0034899034240561655,0.005048287971905111,0.0051580333625987585,0.005597014925373034,0.007352941176470606,0.006277436347673271,0.00578358208955225,0.005816505706760329,0.006057945566286133,0.0057067603160666815,0.0044995610184371876,0.0043568920105354625,0.003017998244073655,0.0019754170324845543,0.0021729587357330253,0.0015364354697102783,,0.0040935030728708344,0.003610623353819068,,,0.0027765583845478503,0.0020851624231782015,0.001942493415276476,0.0051580333625987585,0.005048287971905111,0.005761633011413427,0.005772607550482838,0.005377524143985896,0.0057067603160666815,0.004433713784021031,0.003950834064969265,0.0032045654082528707,0.002491220368744399,0.0028533801580332627,0.0031826163301140477,0.00362159789288848,,,0.0016461808604037694,5.487269534674553e-05,,,,-0.002030289727831456,,,-0.003182616330114204,-0.0032374890254609494,-0.0034569798068480873,-0.004203248463564638,-0.005267778753292405,-0.004653204565408325,,,-0.004554433713784089,-0.004170324846356559,-0.00532265144863915,-0.0034899034240561655,-0.004356892010535619,-0.004993415276558366,-0.005948200175592643,,-0.006705443371378448,-0.007133450395083469,-0.007122475856014057,-0.007078577699736723,-0.006365232660228252,-0.006650570676031703,-0.006639596136962291,-0.006913959613696331,-0.007791922739245039,-0.007638279192273902,-0.006979806848112487,-0.007352941176470606,-0.00644205443371382,-0.008011413520632176,-0.008033362598770844,-0.007879719051799863,-0.008615013169447001,-0.009438103599648808,-0.010370939420544418,-0.011325724319578694,-0.012873134328358229,-0.013827919227392505,-0.01273046532045666,-0.01349868305531172,,,-0.013169446883230934,-0.012478050921861286,-0.013904741000878074,-0.014596136962247565,-0.013356014047409994,-0.012949956101843798,-0.012214661984196658,-0.012862159789288972,,-0.012412203687445129,-0.012291483757682227,,,-0.013608428446005367,-0.014266900790166938,,-0.01481562774363486,,-0.01570456540825298,,,,,-0.013608428446005367,-0.013937664618086152,,-0.017010535557506708,-0.01635206321334514,-0.017669007901668123,-0.0182177348551362,-0.0181628621597893,,-0.019150570676031656,-0.019611501316944755,,,,-0.01624231782265149,-0.016571553994732275,-0.014266900790166938,-0.013663301141352113,-0.014486391571554074,,-0.015583845478489922,,-0.014563213345039488,-0.014464442493415252,-0.013388937664618072,-0.014870500438981606,-0.016560579455662864,,-0.01624231782265149,-0.016681299385425924,-0.017010535557506708,-0.01777875329236177,,-0.017328797190518084,-0.016538630377524198,-0.016604477611940355,-0.017482440737489065,-0.014738805970149291,-0.014980245829675254,-0.01580333625987706,-0.015254609306409136,-0.014047410008779643,-0.013531606672519798,-0.012214661984196658,-0.01349868305531172,-0.013773046532045759,-0.01415715539947329,-0.014661984196663723,-0.014266900790166938,-0.014014486391571565,-0.01420105355575078,-0.014486391571554074,-0.014760755048287959,,,-0.014464442493415252,-0.014420544337137919,-0.014486391571554074,,-0.01481562774363486,-0.013948639157155407,-0.01472783143107988,-0.01592405618964012,-0.017010535557506708,-0.017153204565408278,-0.01630816505706765,-0.016022827041264353,-0.015978928884986865,-0.016681299385425924,,-0.01606672519754169,-0.015331431079894705,,,,-0.018546971027216832,-0.018107989464442555,,-0.018766461808604126,-0.01805311676909581,-0.01819578577699738,-0.017065408252853454,-0.017372695346795416,-0.016845917471466316,,-0.016867866549604982,,-0.014925373134328351,-0.014925373134328351,-0.01495829675153643,-0.014376646180860429,-0.013663301141352113,,-0.01284021071115015,-0.012247585601404737,-0.012620719929763012,-0.012434152765583953,,-0.013125548726953444,,,-0.013004828797190542,-0.013059701492537289,-0.013597453906935956,-0.013718173836698858,-0.013937664618086152,,-0.01415715539947329,-0.01415715539947329,-0.014058384547849054,-0.013937664618086152,-0.014486391571554074,-0.014486391571554074,-0.015298507462686626,-0.01504609306409141,-0.014212028094820035,,-0.013992537313432897,-0.014486391571554074,-0.015035118525021998,,-0.015035118525021998,-0.015089991220368745,,-0.015254609306409136,-0.015682616330114158,,-0.015144863915715645,,-0.015320456540825294,,,-0.01646180860403863,-0.016900790166813062,-0.0171202809482002,-0.017230026338893846,-0.016571553994732275,-0.01646180860403863,-0.017230026338893846,-0.01672519754170326,-0.015913081650570707,-0.01600087796312553,-0.01710930640913079,,,-0.015035118525021998,-0.016571553994732275,,-0.015035118525021998,-0.015035118525021998,,-0.015913081650570707,-0.016132572431957846,-0.01501316944688333,-0.013992537313432897,,-0.013059701492537289,-0.013004828797190542,-0.015309482001756037,-0.017230026338893846,-0.017021510096575963,-0.016022827041264353,,-0.016022827041264353,-0.01654960491659361,-0.015583845478489922,-0.01635206321334514,-0.016791044776119413,,-0.014694907813871802,-0.015638718173836823,-0.015035118525021998,-0.015561896400351254,-0.015331431079894705,-0.01454126426690082,-0.014146180860403878,-0.01481562774363486,,-0.01596795434591745,-0.016121597892888587,,-0.01695566286215981,-0.014892449517120272,-0.014486391571554074,-0.01454126426690082,-0.015649692712906078,-0.015177787532923724,,-0.014683933274802547,-0.01519973661106239,-0.015364354697102784,-0.014892449517120272,,-0.014837576821773528,,-0.014947322212467175,-0.0145741878841089,-0.01501316944688333,,-0.01583625987708514,-0.016428884986830553,-0.016264266900790157,-0.015913081650570707,-0.01650570676031612,-0.01635206321334514,-0.01693371378402114,-0.017208077260755024,,-0.015397278314310862,,-0.014596136962247565,-0.015144863915715645,-0.015572870939420665,,,-0.014497366110623331,,-0.014420544337137919,,-0.015122914837576822,-0.014508340649692742,-0.014475417032484663,,,-0.016428884986830553,-0.016384986830553217,-0.016911764705882473,-0.017054433713784043,-0.01596795434591745,-0.015583845478489922,-0.0151558384547849,-0.016406935908691883,-0.01695566286215981,-0.016022827041264353,-0.015089991220368745,-0.014892449517120272,-0.015221685689201058,-0.01592405618964012,-0.015408252853380273,-0.0145741878841089,-0.014881474978051017,-0.015188762071992979,-0.015781387181738393,-0.01624231782265149,-0.016988586479367886,-0.016867866549604982,-0.01742756804214232,-0.017789727831431183,-0.017328797190518084,-0.01831650570676044,-0.02036874451273056
2019-05-03,,-93.145,-93.174,-93.009,-92.977,-92.98,-92.636,-92.431,-92.302,-92.128,,-92.14,-92.199,-92.211,-92.085,-92.235,-91.58,-91.118,-91.283,-91.574,-91.692,-91.82,-91.942,-91.866,,-91.938,-92.086,,-91.924,-91.98,-92.18,-91.999,-92.138,-92.44,-92.575,-92.729,-92.872,-92.849,,-92.686,-92.755,-92.84,-92.867,-92.858,-92.824,-92.866,-93.08,-93.105,-93.105,-93.38,-93.203,-93.292,-93.39,-93.387,-93.42,-93.576,-93.618,-93.768,-94.006,-94.025,-93.935,-93.854,-93.873,-93.88,-93.96,-94.017,-93.907,-93.92,-93.999,-94.005,-94.032,-94.083,-94.008,-93.994,-94.04,-94.009,-94.019,-94.039,-94.05,-94.014,-94.001,-93.985,-93.96,-94.01,-93.985,-93.985,-94.005,-93.957,-93.971,-94.011,-93.975,-94.018,-94.242,-94.371,-94.23,,-94.356,-94.326,-94.24,-94.465,-94.501,-94.4,-94.194,-94.174,-94.13,-94.0,-93.97,-93.972,-93.667,-93.683,,,-93.609,-93.638,-93.722,-93.88,,,,-93.76,-93.75,,-93.785,,-93.819,-93.72,,,,-93.75,-93.767,-93.745,-93.83,-93.83,-93.81,-93.738,-93.742,-93.678,,-93.65,-93.65,-93.73,-93.78,-93.77,-93.646,-93.72,-93.693,-93.629,-93.65,-93.612,,-93.703,-93.76,-93.719,,-93.81,-93.897,-93.93,-93.913,,-93.9,-93.9,-93.842,,-93.737,-93.753,,-93.8,-93.76,-93.744,,,-93.78,,-93.773,-93.78,,-93.782,-93.75,-93.76,-93.795,,-93.876,-93.794,-93.75,-93.742,-93.751,-93.77,,-93.825,-93.92,-93.95,-93.993,-94.021,-94.03,-93.958,-93.85,,,-94.02,-94.0,-94.01,-93.933,,-93.85,,-93.637,-93.743,,-93.759,,-93.771,,-93.817,-93.73,,,,-93.699,-93.715,-93.68,-93.69,-93.7,-93.68,-93.663,-93.68,-93.652,-93.55,-93.672,-93.65,,-93.76,-93.7,,-93.66,-93.735,-93.68,-93.611,-93.62,-93.625,-93.68,-93.61,-93.549,-93.498,-93.3,-93.28,-93.15,,-93.09,,-93.12,,,-93.17,-93.02,,,-93.12,-93.12,-93.144,-93.181,-93.183,-93.12,-93.118,-93.04,-92.84,-92.836,-92.78,-92.86,-92.838,,-92.74,,-92.685,-92.7,,-92.83,-92.83,-92.84,-92.945,,,,,-93.046,-93.07,,-93.15,-93.15,,-93.164,-93.23,-93.22,,,-92.945,-92.96,-92.935,,,-92.897,,,-92.79,,,-92.77,-92.715,-92.68,-92.645,-92.64,-92.688,,-92.733,-92.713,-92.775,-92.787,-92.775,-92.71,-92.722,-92.735,,,-93.03,-93.125,-93.122,-93.11,,-92.93,,-92.82,-92.826,,,-92.777,,-92.78,-92.878,,,,,,-92.76,-92.754,,,-92.72,-92.721,-92.69,-92.71,-92.69,-92.68,-92.733,-92.69,-92.701,-92.76,,-92.828,-92.629,,-92.65,-92.64,-92.559,-92.65,-92.623,-92.58,-92.525,-92.569,-92.576,-92.68,-92.624,-92.54,-92.389,-92.48,-92.439,-92.392,-92.363,-92.211,-92.229,-92.32,-92.35,-92.394,-92.263,-92.375,-92.477,-92.528,-92.522,-92.516,-92.159
