,09:30,09:31,09:32,09:33,09:34,09:35,09:36,09:37,09:38,09:39,09:40,09:41,09:42,09:43,09:44,09:45,09:46,09:47,09:48,09:49,09:50,09:51,09:52,09:53,09:54,09:55,09:56,09:57,09:58,09:59,10:00,10:01,10:02,10:03,10:04,10:05,10:06,10:07,10:08,10:09,10:10,10:11,10:12,10:13,10:14,10:15,10:16,10:17,10:18,10:19,10:20,10:21,10:22,10:23,10:24,10:25,10:26,10:27,10:28,10:29,10:30,10:31,10:32,10:33,10:34,10:35,10:36,10:37,10:38,10:39,10:40,10:41,10:42,10:43,10:44,10:45,10:46,10:47,10:48,10:49,10:50,10:51,10:52,10:53,10:54,10:55,10:56,10:57,10:58,10:59,11:00,11:01,11:02,11:03,11:04,11:05,11:06,11:07,11:08,11:09,11:10,11:11,11:12,11:13,11:14,11:15,11:16,11:17,11:18,11:19,11:20,11:21,11:22,11:23,11:24,11:25,11:26,11:27,11:28,11:29,11:30,11:31,11:32,11:33,11:34,11:35,11:36,11:37,11:38,11:39,11:40,11:41,11:42,11:43,11:44,11:45,11:46,11:47,11:48,11:49,11:50,11:51,11:52,11:53,11:54,11:55,11:56,11:57,11:58,11:59,12:00,12:01,12:02,12:03,12:04,12:05,12:06,12:07,12:08,12:09,12:10,12:11,12:12,12:13,12:14,12:15,12:16,12:17,12:18,12:19,12:20,12:21,12:22,12:23,12:24,12:25,12:26,12:27,12:28,12:29,12:30,12:31,12:32,12:33,12:34,12:35,12:36,12:37,12:38,12:39,12:40,12:41,12:42,12:43,12:44,12:45,12:46,12:47,12:48,12:49,12:50,12:51,12:52,12:53,12:54,12:55,12:56,12:57,12:58,12:59,13:00,13:01,13:02,13:03,13:04,13:05,13:06,13:07,13:08,13:09,13:10,13:11,13:12,13:13,13:14,13:15,13:16,13:17,13:18,13:19,13:20,13:21,13:22,13:23,13:24,13:25,13:26,13:27,13:28,13:29,13:30,13:31,13:32,13:33,13:34,13:35,13:36,13:37,13:38,13:39,13:40,13:41,13:42,13:43,13:44,13:45,13:46,13:47,13:48,13:49,13:50,13:51,13:52,13:53,13:54,13:55,13:56,13:57,13:58,13:59,14:00,14:01,14:02,14:03,14:04,14:05,14:06,14:07,14:08,14:09,14:10,14:11,14:12,14:13,14:14,14:15,14:16,14:17,14:18,14:19,14:20,14:21,14:22,14:23,14:24,14:25,14:26,14:27,14:28,14:29,14:30,14:31,14:32,14:33,14:34,14:35,14:36,14:37,14:38,14:39,14:40,14:41,14:42,14:43,14:44,14:45,14:46,14:47,14:48,14:49,14:50,14:51,14:52,14:53,14:54,14:55,14:56,14:57,14:58,14:59,15:00,15:01,15:02,15:03,15:04,15:05,15:06,15:07,15:08,15:09,15:10,15:11,15:12,15:13,15:14,15:15,15:16,15:17,15:18,15:19,15:20,15:21,15:22,15:23,15:24,15:25,15:26,15:27,15:28,15:29,15:30,15:31,15:32,15:33,15:34,15:35,15:36,15:37,15:38,15:39,15:40,15:41,15:42,15:43,15:44,15:45,15:46,15:47,15:48,15:49,15:50,15:51,15:52,15:53,15:54,15:55,15:56,15:57,15:58,15:59
2019-04-01,96.19,96.15,96.12,95.69,95.81,95.95,96.0,96.175,96.14,96.15,96.28,96.16,96.3,96.19,95.99,96.0,95.75,95.81,95.84,95.78,95.79,95.82,95.98,96.17,96.275,96.165,95.96,96.025,95.97,95.91,95.84,96.09,96.18,96.195,96.315,96.435,96.46,96.38,96.4,96.25,96.215,96.09,96.11,96.27,96.15,96.05,96.125,96.06,96.09,96.03,96.11,96.12,96.16,96.154,96.09,96.04,96.04,95.99,95.928,95.99,96.155,96.11,96.1,96.09,96.09,96.11,96.11,96.25,96.393,96.46,96.35,96.28,96.25,96.23,96.245,96.25,96.22,96.3,96.35,96.35,96.44,96.398,96.37,96.362,96.37,96.325,96.41,96.5,96.513,96.44,96.475,96.54,96.65,96.69,96.75,96.66,96.62,96.58,96.49,96.42,96.495,96.55,96.61,96.59,96.51,96.601,96.51,96.56,96.56,96.63,96.562,96.46,96.38,96.32,96.335,96.33,96.38,96.42,96.35,96.37,96.39,96.4,96.31,96.22,96.22,96.29,96.29,96.12,96.18,96.09,96.1,96.135,96.05,95.97,95.91,95.99,95.97,95.97,96.08,96.082,96.07,96.09,96.07,96.14,96.26,96.24,96.16,96.27,96.32,96.36,96.36,96.26,96.25,96.28,96.3,96.34,96.27,96.24,96.231,96.18,96.2,96.22,96.23,96.22,96.24,96.24,96.26,96.28,96.29,96.25,96.221,96.31,96.35,96.34,96.49,96.46,96.4,96.41,96.39,96.45,96.45,96.46,96.48,96.474,96.45,96.51,96.505,96.46,96.45,96.5,96.53,96.497,96.54,96.48,96.5,96.55,96.58,96.56,96.62,96.644,96.56,96.53,96.6,96.59,96.67,96.61,96.53,96.54,96.68,96.7,96.74,96.68,96.691,96.68,96.72,96.74,96.66,96.69,96.69,96.75,96.8,96.78,96.79,96.723,96.79,96.78,96.79,96.76,96.72,96.72,96.708,96.64,96.64,96.71,96.72,96.694,96.71,96.7,96.75,96.75,96.77,96.83,96.79,96.843,96.92,96.87,96.87,96.84,96.75,96.77,96.77,96.85,96.84,96.81,96.79,96.79,96.82,96.88,96.83,96.86,96.88,96.886,96.93,96.98,96.97,96.96,96.9,96.9,96.93,96.92,96.93,96.93,96.935,96.86,96.86,96.87,96.88,96.86,96.87,96.95,96.99,97.02,97.066,97.03,97.02,97.04,97.1,97.1,97.09,97.1,97.13,97.04,96.99,97.0,97.02,96.99,96.89,96.88,96.85,96.81,96.83,96.84,96.87,96.88,96.865,96.93,96.97,96.96,97.01,97.0,97.01,97.01,96.92,96.885,96.88,96.86,96.85,96.84,96.82,96.87,96.9,96.9,96.87,96.81,96.79,96.81,96.87,96.89,96.94,96.89,96.9,96.92,96.94,96.92,96.899,96.9,96.835,96.85,96.82,96.82,96.845,96.81,96.75,96.72,96.76,96.756,96.73,96.83,96.85,96.87,96.83,96.87,96.89,96.88,96.89,96.97,96.87,96.795,96.85,96.89,96.8,96.78,96.785,96.805,96.78,96.745,96.75,96.82,96.91,96.85,96.81,96.84,96.9,96.92,96.96,96.99,96.92,96.905,96.93,96.92,96.93,96.91,96.92,96.975,96.97,96.94,97.0,97.035,97.01,97.04
2019-04-02,97.08,97.23,97.24,97.28,97.26,97.11,97.16,97.314,97.34,97.415,97.45,97.33,97.02,97.094,97.13,97.31,97.06,97.005,96.999,97.01,96.95,96.96,96.84,96.94,96.94,97.05,97.05,97.27,97.31,97.29,97.43,97.635,97.57,97.605,97.44,97.6,97.665,97.49,97.54,97.55,97.5,97.4,97.3,97.265,97.315,97.53,97.55,97.48,97.57,97.54,97.6,97.65,97.65,97.66,97.64,97.51,97.5,97.355,97.5,97.39,97.445,97.42,97.47,97.4,97.43,97.51,97.44,97.4,97.355,97.212,97.13,97.1,97.16,97.16,97.18,97.16,97.0,96.93,96.99,97.05,96.92,96.96,96.88,96.93,96.98,96.84,96.79,96.7,96.65,96.72,96.56,96.63,96.52,96.37,96.36,96.59,96.68,96.56,96.51,96.55,96.57,96.6,96.56,96.59,96.38,96.25,96.185,96.42,96.5,96.4,96.5,96.54,96.58,96.63,96.67,96.685,96.64,96.68,96.55,96.58,96.69,96.72,96.6,96.62,96.64,96.7,96.7,96.61,96.49,96.475,96.53,96.585,96.68,96.66,96.71,96.68,96.63,96.71,96.665,96.6,96.61,96.735,96.74,96.83,96.86,96.89,96.901,96.78,96.82,96.9,96.82,96.86,96.83,96.85,96.85,96.87,96.92,96.87,96.9,96.9,96.86,96.8,96.83,96.81,96.73,96.73,96.7,96.65,96.64,96.69,96.655,96.66,96.63,96.68,96.69,96.65,96.62,96.61,96.43,96.45,96.49,96.44,96.44,96.43,96.43,96.48,96.53,96.53,96.52,96.545,96.55,96.54,96.54,96.55,96.54,96.55,96.48,96.44,96.37,96.399,96.42,96.43,96.45,96.41,96.45,96.55,96.49,96.49,96.487,96.51,96.5,96.475,96.445,96.46,96.43,96.43,96.45,96.49,96.53,96.68,96.66,96.6,96.61,96.57,96.64,96.59,96.61,96.55,96.53,96.58,96.61,96.58,96.68,96.62,96.56,96.59,96.55,96.51,96.51,96.51,96.49,96.45,96.44,96.42,96.39,96.475,96.53,96.54,96.55,96.52,96.49,96.51,96.48,96.48,96.41,96.39,96.395,96.35,96.29,96.25,96.23,96.234,96.27,96.32,96.31,96.376,96.431,96.39,96.33,96.33,96.36,96.35,96.37,96.38,96.47,96.53,96.48,96.54,96.47,96.455,96.455,96.42,96.51,96.455,96.41,96.4,96.34,96.35,96.36,96.285,96.31,96.26,96.23,96.16,96.19,96.255,96.23,96.24,96.23,96.299,96.29,96.28,96.29,96.32,96.26,96.29,96.31,96.3,96.27,96.27,96.3,96.33,96.355,96.34,96.34,96.31,96.35,96.32,96.3,96.245,96.21,96.24,96.22,96.19,96.09,96.03,96.05,96.075,96.12,96.17,96.21,96.21,96.26,96.29,96.28,96.32,96.31,96.29,96.27,96.21,96.21,96.23,96.26,96.23,96.29,96.31,96.28,96.24,96.27,96.28,96.27,96.24,96.16,96.17,96.25,96.26,96.195,96.175,96.145,96.13,96.15,96.2,96.22,96.2,96.25,96.27,96.26,96.3,96.35,96.39,96.33,96.34,96.36,96.36,96.35,96.26,96.29,96.325,96.335,96.34,96.31,96.31,96.28,96.255,96.26,96.31,96.215,96.185,96.185,96.14
2019-04-03,96.65,96.343,96.17,96.185,95.91,95.98,96.23,96.47,96.34,96.19,96.13,96.0,95.96,96.13,96.17,96.06,96.15,96.16,96.18,96.0,96.18,96.15,95.979,95.95,95.922,95.96,95.97,95.828,95.84,95.83,95.76,95.665,95.575,95.6,95.46,95.44,95.458,95.44,95.576,95.66,95.73,95.85,95.87,95.83,95.84,95.83,95.97,96.063,96.132,96.05,96.09,96.1,96.02,96.045,96.085,96.05,96.05,95.87,95.84,95.84,95.75,95.588,95.59,95.505,95.66,95.66,95.62,95.55,95.58,95.635,95.635,95.93,95.99,95.94,95.94,95.865,96.03,95.99,96.025,95.95,95.95,96.04,96.03,96.17,96.139,96.26,96.25,96.09,96.1,96.13,96.02,95.99,96.13,96.215,96.24,96.265,96.26,96.09,96.02,96.06,95.98,96.07,95.96,95.77,95.83,95.81,95.7,95.7,95.69,95.71,95.64,95.55,95.52,95.55,95.5,95.46,95.455,95.347,95.37,95.38,95.41,95.442,95.4,95.442,95.41,95.37,95.34,95.34,95.26,95.27,95.285,95.3,95.23,95.19,95.17,95.2,95.2,95.1,95.14,95.18,95.24,95.3,95.35,95.38,95.26,95.39,95.42,95.45,95.478,95.4,95.37,95.425,95.47,95.42,95.5,95.51,95.484,95.5,95.56,95.64,95.65,95.5,95.47,95.335,95.32,95.33,95.39,95.45,95.45,95.46,95.43,95.38,95.4,95.34,95.42,95.46,95.45,95.37,95.385,95.29,95.28,95.35,95.31,95.33,95.23,95.11,95.156,95.14,95.1,95.135,95.18,95.2,95.21,95.11,95.06,94.95,94.88,94.905,94.925,94.86,94.83,94.86,94.86,94.845,94.8,94.79,94.73,94.77,94.74,94.7,94.6,94.65,94.68,94.75,94.76,94.735,94.73,94.73,94.66,94.68,94.77,94.76,94.72,94.665,94.62,94.62,94.59,94.56,94.54,94.54,94.52,94.545,94.55,94.63,94.64,94.55,94.525,94.56,94.57,94.57,94.53,94.53,94.5,94.53,94.56,94.57,94.52,94.51,94.55,94.51,94.5,94.44,94.36,94.34,94.34,94.38,94.36,94.35,94.35,94.37,94.27,94.305,94.26,94.22,94.26,94.26,94.21,94.155,94.04,94.11,94.13,94.13,94.09,94.0,93.97,93.97,94.0,93.95,93.91,93.92,93.96,93.91,93.92,93.82,93.8,93.79,93.87,93.8,93.83,93.81,93.79,93.86,93.95,93.93,93.995,94.045,94.04,94.1,94.12,94.215,94.2,94.16,94.23,94.22,94.19,94.19,94.17,94.25,94.26,94.3,94.22,94.23,94.29,94.21,94.14,94.17,94.21,94.18,94.2,94.19,94.2,94.25,94.3,94.385,94.4,94.385,94.33,94.37,94.33,94.345,94.31,94.29,94.36,94.34,94.33,94.34,94.37,94.35,94.33,94.29,94.23,94.244,94.18,94.12,94.19,94.2,94.13,94.14,94.22,94.24,94.22,94.144,94.17,94.25,94.12,94.23,94.19,94.27,94.32,94.38,94.39,94.34,94.375,94.34,94.35,94.355,94.28,94.355,94.33,94.32,94.3,94.29,94.33,94.375,94.375,94.38,94.355,94.32,94.3,94.285,94.33,94.31,94.27,94.16,94.0,94.0,94.005,93.995,93.89,93.87
2019-04-04,94.06,93.945,93.85,93.93,94.05,94.04,94.5,94.26,94.255,94.35,94.355,94.35,94.31,94.17,94.165,93.97,93.965,93.8,93.76,93.71,93.7,93.87,93.82,93.94,93.98,93.88,93.77,93.67,93.62,93.64,93.6,93.58,93.63,93.6,93.6,93.55,93.545,93.55,93.55,93.53,93.455,93.457,93.46,93.55,93.48,93.41,93.38,93.495,93.51,93.55,93.51,93.56,93.62,93.64,93.615,93.56,93.445,93.53,93.47,93.52,93.31,93.29,93.28,93.255,93.23,93.17,93.0,93.1,93.03,93.025,93.01,92.935,92.96,93.0,93.01,93.215,93.295,93.211,93.23,93.318,93.31,93.3,93.3,93.215,93.19,93.175,93.125,93.05,93.09,93.085,93.01,93.01,93.03,93.025,93.16,93.16,93.19,93.27,93.24,93.28,93.22,93.26,93.37,93.39,93.33,93.38,93.33,93.255,93.21,93.24,93.13,92.97,93.01,93.07,93.04,93.22,93.32,93.32,93.37,93.375,93.33,93.23,93.205,93.2,93.31,93.29,93.33,93.52,93.63,93.59,93.67,93.62,93.64,93.67,93.655,93.585,93.72,93.78,93.772,93.68,93.72,93.72,93.64,93.68,93.68,93.68,93.74,93.66,93.7,93.74,93.75,93.79,93.72,93.69,93.715,93.715,93.68,93.73,93.71,93.65,93.615,93.57,93.53,93.5,93.47,93.36,93.32,93.24,93.22,93.26,93.35,93.505,93.54,93.6,93.58,93.49,93.52,93.52,93.53,93.505,93.53,93.48,93.53,93.495,93.44,93.45,93.55,93.52,93.46,93.48,93.46,93.47,93.41,93.495,93.55,93.556,93.49,93.48,93.51,93.495,93.6,93.57,93.63,93.65,93.62,93.67,93.7,93.66,93.69,93.65,93.61,93.6,93.57,93.51,93.42,93.44,93.49,93.5,93.48,93.51,93.46,93.44,93.508,93.53,93.48,93.45,93.49,93.48,93.495,93.57,93.62,93.59,93.54,93.56,93.575,93.55,93.52,93.555,93.575,93.6,93.595,93.58,93.652,93.68,93.61,93.61,93.68,93.7,93.66,93.66,93.65,93.62,93.63,93.59,93.57,93.58,93.61,93.65,93.61,93.47,93.455,93.57,93.59,93.61,93.76,93.73,93.66,93.62,93.77,93.675,93.62,93.6,93.63,93.62,93.59,93.6,93.63,93.655,93.65,93.63,93.79,93.69,93.69,93.64,93.67,93.66,93.66,93.69,93.66,93.665,93.672,93.65,93.69,93.65,93.63,93.55,93.5,93.58,93.6,93.49,93.48,93.44,93.56,93.66,93.65,93.64,93.69,93.71,93.72,93.67,93.67,93.66,93.65,93.57,93.545,93.505,93.5,93.44,93.46,93.38,93.33,93.31,93.32,93.38,93.405,93.44,93.39,93.43,93.385,93.3,93.395,93.465,93.44,93.37,93.35,93.36,93.49,93.39,93.37,93.32,93.39,93.46,93.53,93.52,93.45,93.42,93.48,93.54,93.55,93.49,93.51,93.5,93.46,93.39,93.5,93.53,93.44,93.46,93.41,93.39,93.43,93.42,93.405,93.42,93.5,93.47,93.51,93.52,93.57,93.55,93.52,93.54,93.545,93.47,93.47,93.493,93.555,93.63,93.64,93.615,93.55,93.63,93.59,93.6,93.64,93.57,93.61,93.6,93.6,93.59
2019-04-05,94.45,94.43,94.5,94.9,94.735,94.635,94.61,94.67,94.55,94.59,94.66,94.56,94.69,94.498,94.68,94.68,94.85,95.158,95.21,95.3,95.37,95.4,95.51,95.37,95.342,95.18,95.21,95.24,95.39,95.54,95.55,95.51,95.582,95.665,95.73,95.78,95.97,96.07,96.14,96.24,96.23,96.175,96.26,96.28,96.3,96.36,96.34,96.29,96.35,96.455,96.41,96.58,96.53,96.61,96.55,96.575,96.58,96.605,96.475,96.39,96.46,96.388,96.535,96.62,96.62,96.58,96.56,96.69,96.725,96.63,96.61,96.535,96.59,96.61,96.625,96.71,96.765,96.795,96.873,96.88,96.84,96.92,96.915,97.045,97.04,97.08,97.13,97.09,96.98,97.13,96.985,97.085,97.105,97.14,97.07,96.92,96.93,97.01,97.14,97.165,97.15,97.135,97.225,97.36,97.44,97.42,97.365,97.46,97.44,97.42,97.45,97.65,97.63,97.6,97.57,97.52,97.34,97.195,97.06,97.07,97.09,97.05,96.98,96.95,96.85,96.81,96.87,96.99,96.95,96.98,96.865,96.98,97.1,97.08,97.1,97.19,97.18,97.2,97.12,97.11,97.1,97.07,97.07,97.1,97.188,97.23,97.2,97.13,97.125,97.1,97.11,97.15,97.17,97.1,97.06,97.09,97.08,97.065,97.09,97.11,97.135,97.14,97.175,97.17,97.16,97.16,97.21,97.19,97.198,97.2,97.23,97.26,97.27,97.18,97.216,97.27,97.29,97.32,97.35,97.37,97.375,97.435,97.375,97.34,97.339,97.41,97.38,97.28,97.25,97.2,97.15,97.171,97.185,97.22,97.27,97.26,97.39,97.405,97.51,97.435,97.46,97.48,97.558,97.58,97.61,97.61,97.67,97.74,97.79,97.76,97.82,97.85,97.87,97.89,97.92,97.9,97.93,97.91,97.946,98.05,98.01,98.05,98.0,98.03,98.02,98.04,98.02,98.05,98.095,98.09,98.1,98.14,98.22,98.28,98.24,98.18,98.176,98.16,98.26,98.21,98.19,98.2,98.17,98.075,98.05,98.12,98.13,98.13,98.22,98.28,98.35,98.3,98.28,98.245,98.245,98.14,98.125,98.19,98.18,98.185,98.23,98.21,98.25,98.25,98.26,98.24,98.26,98.28,98.335,98.32,98.43,98.385,98.4,98.385,98.427,98.48,98.5,98.49,98.28,98.28,98.26,98.23,98.21,98.29,98.32,98.29,98.43,98.5,98.5,98.44,98.39,98.31,98.275,98.3,98.31,98.25,98.24,98.24,98.32,98.4,98.41,98.37,98.4,98.34,98.3,98.34,98.36,98.25,98.25,98.27,98.38,98.34,98.4,98.42,98.37,98.34,98.26,98.23,98.21,98.21,98.19,98.17,98.2,98.2,98.18,98.14,98.12,98.22,98.29,98.32,98.39,98.375,98.48,98.48,98.475,98.56,98.62,98.4,98.405,98.395,98.39,98.38,98.41,98.45,98.425,98.45,98.43,98.41,98.46,98.4,98.43,98.46,98.533,98.42,98.447,98.41,98.4,98.395,98.45,98.44,98.42,98.44,98.54,98.51,98.59,98.56,98.46,98.42,98.43,98.46,98.48,98.53,98.525,98.5,98.415,98.46,98.475,98.52,98.52,98.47,98.47,98.42,98.42,98.45,98.47,98.52,98.59,98.64,98.66,98.64
2019-04-08,99.12,99.26,99.69,99.851,99.93,99.87,99.75,99.768,99.68,99.54,99.59,100.01,100.04,100.55,100.34,100.376,100.67,100.831,100.89,100.85,100.765,100.83,100.89,100.76,100.7,100.61,100.298,100.32,100.16,100.15,100.06,100.09,100.1,100.1,100.2,99.97,100.1,100.09,100.015,100.005,100.06,100.1,100.04,100.0,100.05,100.09,100.11,100.18,100.41,100.55,100.55,100.41,100.38,100.36,100.375,100.4,100.37,100.23,100.37,100.37,100.26,100.14,100.14,100.12,100.14,100.06,100.17,100.25,100.26,100.325,100.33,100.35,100.34,100.32,100.28,100.19,100.09,100.13,100.11,100.177,100.13,100.23,100.22,100.28,100.255,100.29,100.22,100.17,100.16,100.14,100.18,100.21,100.13,100.01,100.02,100.0,99.971,99.96,100.0,100.02,99.97,99.9,99.877,99.75,99.79,99.6,99.66,99.5,99.32,99.29,99.16,99.09,99.2,99.28,99.18,99.15,99.202,99.29,99.28,99.34,99.285,99.49,99.49,99.525,99.58,99.54,99.44,99.43,99.51,99.51,99.38,99.43,99.369,99.46,99.39,99.44,99.41,99.44,99.45,99.55,99.56,99.47,99.41,99.47,99.44,99.49,99.43,99.4,99.47,99.44,99.37,99.34,99.38,99.3,99.26,99.29,99.34,99.335,99.23,99.16,99.22,99.157,99.17,99.14,99.09,99.151,99.21,99.31,99.375,99.39,99.39,99.33,99.31,99.325,99.33,99.36,99.4,99.44,99.44,99.42,99.37,99.38,99.25,99.26,99.16,99.17,99.225,99.22,99.3,99.345,99.3,99.41,99.45,99.46,99.47,99.56,99.525,99.54,99.53,99.48,99.435,99.52,99.4,99.495,99.54,99.49,99.62,99.64,99.6,99.62,99.51,99.48,99.485,99.46,99.485,99.42,99.41,99.44,99.46,99.42,99.47,99.495,99.506,99.47,99.41,99.396,99.3,99.37,99.38,99.406,99.33,99.35,99.35,99.38,99.41,99.38,99.39,99.41,99.42,99.38,99.36,99.31,99.39,99.36,99.37,99.36,99.3,99.345,99.4,99.43,99.43,99.47,99.46,99.44,99.42,99.434,99.48,99.5,99.5,99.46,99.49,99.5,99.37,99.5,99.513,99.54,99.455,99.445,99.53,99.5,99.52,99.5,99.425,99.41,99.465,99.415,99.48,99.33,99.38,99.35,99.37,99.355,99.3,99.36,99.31,99.34,99.28,99.31,99.32,99.31,99.32,99.3,99.29,99.28,99.245,99.29,99.3,99.31,99.295,99.32,99.26,99.275,99.255,99.305,99.42,99.37,99.39,99.37,99.37,99.415,99.355,99.27,99.26,99.31,99.29,99.24,99.29,99.272,99.315,99.275,99.29,99.34,99.35,99.37,99.47,99.42,99.43,99.455,99.43,99.404,99.44,99.32,99.28,99.31,99.37,99.32,99.29,99.31,99.24,99.29,99.32,99.35,99.38,99.395,99.35,99.33,99.302,99.36,99.35,99.36,99.44,99.47,99.47,99.465,99.43,99.38,99.39,99.405,99.42,99.38,99.39,99.35,99.43,99.42,99.4,99.33,99.39,99.44,99.5,99.46,99.44,99.37,99.38,99.39,99.4,99.32,99.38,99.38,99.37,99.415,99.33,99.401,99.41,99.35,99.39,99.37,99.3,99.29,99.24,99.34
2019-04-09,98.79,98.65,98.4,98.35,98.23,98.04,97.64,97.62,97.61,97.769,97.88,97.88,97.74,97.83,97.89,97.94,98.0,98.11,98.05,98.11,98.08,98.27,98.22,98.27,98.17,98.355,98.28,98.23,98.39,98.19,98.115,98.115,98.07,97.88,97.72,97.69,97.66,97.755,97.77,97.73,97.655,97.755,97.82,97.71,97.73,97.63,97.76,97.64,97.69,97.58,97.56,97.61,97.67,97.63,97.68,97.86,97.98,98.01,97.99,98.05,98.04,97.82,97.8,97.81,97.83,97.89,97.93,98.02,98.075,97.9,97.9,97.84,97.76,97.68,97.66,97.65,97.64,97.62,97.68,97.51,97.48,97.46,97.52,97.478,97.44,97.57,97.61,97.55,97.49,97.658,97.77,97.645,97.58,97.69,97.78,97.75,97.77,97.81,97.79,97.68,97.61,97.63,97.575,97.52,97.56,97.65,97.77,97.79,97.75,97.71,97.61,97.7,97.75,97.73,97.68,97.58,97.65,97.695,97.7,97.72,97.71,97.86,98.08,98.085,98.02,97.94,98.06,98.02,98.02,98.12,98.15,98.11,98.145,98.26,98.25,98.21,98.3,98.3,98.33,98.38,98.38,98.48,98.55,98.6,98.618,98.73,98.68,98.61,98.68,98.66,98.7,98.75,98.81,98.81,98.84,98.88,98.84,98.84,98.9,98.97,99.02,99.02,99.015,99.03,99.13,99.16,99.27,99.13,99.24,99.23,99.23,99.25,99.22,99.21,99.19,99.27,99.33,99.33,99.35,99.34,99.28,99.38,99.34,99.36,99.38,99.4,99.39,99.34,99.37,99.39,99.41,99.45,99.43,99.53,99.57,99.48,99.46,99.49,99.42,99.41,99.356,99.26,99.18,99.16,99.12,99.14,99.04,99.14,99.08,99.01,98.95,98.95,98.955,99.025,98.97,98.935,98.96,98.92,99.01,99.02,99.02,99.06,99.025,98.98,98.96,98.99,98.95,98.97,99.01,98.93,98.92,98.89,98.91,98.88,98.85,98.89,98.89,98.83,98.88,98.83,98.8,98.74,98.694,98.65,98.65,98.66,98.65,98.69,98.71,98.82,98.86,98.92,98.95,98.93,98.88,98.925,98.89,98.93,98.92,98.92,98.89,98.885,98.88,98.87,98.86,98.82,98.86,98.88,98.86,98.88,98.92,98.84,98.85,98.81,98.79,98.81,98.8,98.77,98.74,98.7,98.69,98.61,98.65,98.57,98.61,98.66,98.73,98.73,98.726,98.71,98.7,98.7,98.72,98.715,98.69,98.66,98.695,98.71,98.8,98.79,98.74,98.8,98.74,98.73,98.7,98.685,98.675,98.67,98.68,98.75,98.68,98.68,98.63,98.61,98.62,98.53,98.5,98.46,98.42,98.44,98.53,98.55,98.51,98.44,98.58,98.55,98.49,98.5,98.425,98.38,98.37,98.491,98.54,98.5,98.5,98.55,98.485,98.48,98.46,98.51,98.5,98.51,98.495,98.525,98.56,98.54,98.54,98.51,98.44,98.45,98.38,98.29,98.35,98.33,98.37,98.34,98.27,98.25,98.29,98.42,98.34,98.46,98.43,98.48,98.5,98.52,98.56,98.545,98.5,98.54,98.58,98.585,98.64,98.575,98.59,98.54,98.65,98.65,98.7,98.67,98.67,98.67,98.67,98.62,98.68,98.51,98.52,98.5,98.45,98.53
2019-04-10,99.34,99.24,99.0,99.23,99.75,99.614,99.85,100.045,99.92,99.63,99.425,99.7,99.76,99.67,99.725,99.49,99.65,99.715,99.76,99.74,99.78,99.68,99.49,99.55,99.59,99.53,99.47,99.369,99.49,99.571,99.405,99.3,99.44,99.34,99.23,99.3,99.305,99.26,99.08,99.18,99.07,99.165,99.18,99.26,99.21,99.05,99.19,99.0,99.04,99.11,99.1,99.175,99.08,99.05,98.98,98.965,98.88,99.0,98.88,98.935,98.95,99.08,99.07,98.93,98.95,98.97,99.0,98.895,98.78,98.81,98.84,98.951,99.0,99.05,98.85,98.84,98.84,98.8,98.86,98.8,98.815,98.79,98.78,98.81,98.86,98.79,98.91,98.88,98.81,98.84,98.86,98.85,98.89,98.925,99.0,98.95,98.97,99.02,98.99,99.01,98.95,98.92,98.95,98.88,98.81,98.83,98.915,98.85,98.87,98.75,98.78,98.82,98.85,98.82,98.8,98.95,98.93,98.84,98.84,98.87,98.85,98.95,98.95,98.955,99.01,99.03,98.97,98.97,98.87,98.81,98.82,98.82,98.78,98.88,98.84,98.86,98.91,98.95,98.97,98.92,98.87,98.855,98.82,98.92,98.92,99.01,99.056,99.0,99.03,99.025,99.13,99.15,99.16,99.16,99.2,99.22,99.265,99.26,99.42,99.39,99.37,99.38,99.46,99.43,99.331,99.19,99.22,99.345,99.37,99.41,99.44,99.58,99.559,99.5,99.54,99.5,99.51,99.46,99.44,99.4,99.33,99.3,99.24,99.325,99.34,99.3,99.31,99.38,99.44,99.47,99.4,99.41,99.354,99.35,99.35,99.35,99.3,99.29,99.28,99.22,99.24,99.23,99.257,99.285,99.24,99.21,99.25,99.22,99.19,99.19,99.19,99.18,99.16,99.14,99.14,99.13,99.17,99.15,99.11,99.08,99.19,99.21,99.2,99.135,99.12,99.21,99.13,99.11,99.095,99.15,99.17,99.13,99.1,99.12,99.115,99.11,99.12,99.055,98.94,98.96,98.99,99.0,98.93,98.93,98.95,98.97,98.94,98.88,98.87,98.92,98.91,98.9,98.88,98.91,98.93,98.95,98.92,98.87,98.9,98.94,98.885,98.9,98.86,98.865,98.87,98.82,98.82,98.82,98.85,98.82,98.835,98.805,98.87,98.805,98.76,98.755,98.73,98.75,98.78,98.7,98.75,98.74,98.63,98.64,98.655,98.61,98.63,98.62,98.65,98.59,98.455,98.64,98.555,98.47,98.5,98.49,98.52,98.51,98.47,98.5,98.5,98.54,98.5,98.45,98.479,98.49,98.52,98.57,98.61,98.64,98.69,98.72,98.76,98.74,98.75,98.69,98.71,98.75,98.77,98.74,98.75,98.698,98.73,98.67,98.68,98.68,98.75,98.75,98.72,98.7,98.71,98.775,98.85,98.9,98.93,99.0,98.95,98.95,98.93,98.96,98.97,98.865,98.88,98.86,98.85,98.82,98.839,98.81,98.79,98.735,98.64,98.62,98.63,98.69,98.66,98.7,98.735,98.69,98.785,98.825,98.84,98.8,98.8,98.9,98.83,98.81,98.78,98.75,98.74,98.76,98.72,98.73,98.73,98.66,98.63,98.6,98.62,98.6,98.57,98.58,98.57,98.58,98.52,98.48,98.49,98.42,98.48,98.57,98.62,98.655
2019-04-11,98.38,98.19,98.11,98.12,97.992,98.09,97.925,98.08,98.13,98.19,98.13,98.06,97.95,98.047,98.2,98.29,98.654,98.99,98.96,98.985,98.94,99.03,99.02,98.922,99.09,98.95,98.955,98.96,99.02,99.005,99.19,99.25,99.29,99.43,99.33,99.38,99.29,99.175,99.197,99.16,99.15,99.19,99.15,99.24,99.25,99.355,99.398,99.415,99.53,99.47,99.544,99.66,99.76,99.66,99.679,99.69,99.66,99.46,99.425,99.42,99.36,99.36,99.4,99.395,99.46,99.45,99.44,99.42,99.56,99.56,99.59,99.58,99.47,99.45,99.4,99.44,99.5,99.46,99.36,99.25,99.285,99.31,99.24,99.29,99.24,99.1,98.98,99.02,99.06,98.978,98.94,98.865,98.82,98.7,98.695,98.66,98.61,98.66,98.79,98.84,98.88,98.79,98.83,98.98,99.055,99.12,99.12,99.05,99.0,98.81,98.768,98.77,98.72,98.68,98.57,98.59,98.63,98.69,98.615,98.58,98.64,98.5,98.64,98.445,98.52,98.555,98.58,98.392,98.475,98.46,98.31,97.98,98.12,98.13,98.1,98.14,98.17,98.18,98.18,98.22,98.25,98.28,98.08,97.98,97.97,98.06,98.08,98.18,98.155,98.1,98.01,97.95,98.0,98.1,98.02,97.99,98.0,98.09,98.14,98.03,98.0,98.075,98.04,98.05,98.12,98.19,98.105,98.075,98.01,98.02,98.03,98.0,97.94,98.06,98.105,98.08,97.98,97.86,97.8,97.7,97.79,97.765,97.8,97.855,97.78,97.71,97.75,97.89,97.795,97.85,97.88,97.82,97.67,97.83,97.85,98.01,98.06,98.06,98.08,98.13,98.06,98.17,98.3,98.25,98.31,98.345,98.38,98.36,98.34,98.385,98.39,98.48,98.47,98.41,98.45,98.45,98.51,98.43,98.43,98.43,98.57,98.49,98.47,98.42,98.45,98.39,98.375,98.33,98.47,98.53,98.62,98.61,98.6,98.75,98.9,98.86,98.78,98.61,98.56,98.71,98.78,98.67,98.65,98.73,98.75,98.75,98.735,98.69,98.63,98.57,98.56,98.51,98.51,98.53,98.52,98.58,98.61,98.68,98.71,98.888,98.96,98.87,98.81,98.82,98.87,98.84,98.88,98.91,98.89,98.87,98.86,98.79,98.78,98.82,98.851,98.88,98.875,98.87,98.83,98.91,98.895,98.84,98.88,98.95,99.02,98.97,99.01,99.0,99.02,99.07,98.95,98.905,98.82,98.84,98.86,98.84,98.87,98.9,98.89,98.87,98.88,98.89,98.91,98.86,98.845,98.84,98.805,98.78,98.77,98.76,98.75,98.76,98.725,98.7,98.8,98.79,98.82,98.83,98.83,98.82,98.86,98.81,98.83,98.84,98.85,98.81,98.69,98.727,98.72,98.71,98.69,98.71,98.72,98.72,98.8,98.9,98.9,98.84,98.84,98.85,98.84,98.84,98.811,98.82,98.83,98.83,98.88,98.95,98.95,98.9,98.9,98.85,98.87,98.92,98.865,98.83,98.78,98.77,98.75,98.77,98.76,98.81,98.84,98.88,98.8,98.8,98.81,98.81,98.775,98.815,98.8,98.8,98.77,98.72,98.73,98.72,98.73,98.69,98.7,98.75,98.79,98.83,98.835,98.83,98.88,98.95,98.94,98.9,98.94,98.93
2019-04-12,102.09,102.965,102.27,102.8,103.07,103.285,103.14,103.0,103.063,103.05,103.26,103.6,103.82,103.76,103.8,103.81,103.83,103.88,103.83,103.528,103.72,103.575,103.585,103.595,103.74,103.77,103.81,103.86,103.54,103.46,103.41,103.15,103.06,102.87,102.93,102.98,102.86,102.71,102.64,102.7,102.955,103.0,103.11,102.97,102.89,102.888,102.96,102.83,102.73,102.8,102.76,102.88,102.905,103.2,103.36,103.36,103.345,103.4,103.44,103.44,103.39,103.14,103.31,103.29,103.19,103.03,102.958,103.01,102.95,103.1,102.86,102.72,102.65,102.68,102.7,102.74,102.85,102.81,102.71,102.71,102.89,102.81,102.93,102.91,102.97,102.98,102.95,102.92,102.97,103.0,102.89,102.9,102.99,102.94,103.06,103.01,102.94,102.78,102.8,102.9,102.92,102.93,102.95,102.94,102.92,102.8,102.92,102.83,102.86,102.78,102.79,102.79,102.86,102.93,102.96,102.85,102.88,102.89,102.95,102.941,102.96,102.9,102.89,102.88,102.925,102.92,102.96,102.92,102.94,103.011,102.93,102.85,102.92,102.933,102.971,102.995,102.87,102.98,102.91,102.865,102.97,102.98,103.03,103.175,103.31,103.23,103.355,103.28,103.335,103.36,103.36,103.4,103.39,103.34,103.29,103.31,103.35,103.27,103.36,103.38,103.4,103.37,103.32,103.31,103.33,103.285,103.28,103.36,103.37,103.46,103.43,103.43,103.42,103.33,103.21,103.27,103.27,103.35,103.26,103.295,103.42,103.46,103.46,103.45,103.42,103.42,103.34,103.335,103.43,103.47,103.5,103.65,103.77,103.745,103.83,103.92,103.94,103.97,103.93,104.07,104.09,103.99,104.07,104.025,104.16,104.22,104.31,104.33,104.45,104.49,104.525,104.65,104.72,104.76,104.74,104.79,104.68,104.75,104.74,104.56,104.75,104.78,104.64,104.605,104.745,104.66,104.685,104.69,104.745,104.77,104.75,104.75,104.75,104.75,104.755,104.85,104.83,104.97,104.98,104.97,105.0,105.05,105.1,105.1,104.99,105.055,105.12,105.23,105.25,105.26,105.38,105.44,105.545,105.52,105.49,105.59,105.47,105.21,105.18,105.18,105.286,105.373,105.31,105.46,105.37,105.465,105.45,105.45,105.33,105.51,105.575,105.56,105.64,105.67,105.72,105.73,105.784,105.72,105.69,105.709,105.76,105.66,105.76,105.7,105.75,105.82,105.93,106.015,106.09,105.995,105.92,105.8,105.64,105.73,105.689,105.66,105.59,105.6,105.49,105.551,105.62,105.98,105.87,105.82,105.755,105.83,105.85,105.74,105.71,105.555,105.55,105.5,105.37,105.34,105.23,105.11,105.14,105.18,105.125,105.19,105.12,105.16,105.3,104.99,105.17,105.12,105.27,105.11,105.145,105.27,105.38,105.41,105.58,105.64,105.735,105.78,105.8,105.68,105.85,105.92,106.05,106.0,106.06,106.14,106.31,106.46,106.355,106.3,106.27,106.08,106.09,105.91,105.75,105.87,105.78,105.61,105.62,105.52,105.59,105.66,105.77,105.63,105.61,105.63,105.64,105.65,105.612,105.51,105.53,105.45,105.55,105.48,105.52,105.51,105.47,105.39,105.42,105.38,105.391,105.32,105.36,105.33,105.3,105.26,105.22,105.28,105.36,105.44,105.39,105.335
2019-04-15,104.43,104.48,104.02,104.02,103.795,103.57,103.36,103.36,103.45,103.56,103.83,103.47,103.29,102.84,102.915,102.72,102.85,102.76,102.84,102.86,103.01,102.95,102.911,102.95,102.85,103.08,103.05,103.09,103.56,103.53,103.415,103.415,103.74,103.655,103.68,103.619,103.68,103.555,103.72,103.68,103.6,103.71,103.47,103.48,103.45,103.3,103.54,103.5,103.46,103.3,103.35,103.38,103.335,103.45,103.3,103.29,103.41,103.21,103.285,103.14,103.02,102.893,102.63,102.73,102.81,102.67,102.67,102.73,102.68,102.645,102.66,102.45,102.61,102.51,102.375,102.43,102.48,102.47,102.41,102.37,102.52,102.58,102.55,102.505,102.58,102.535,102.51,102.63,102.54,102.57,102.6,102.51,102.42,102.37,102.33,102.34,102.22,102.23,102.24,102.31,102.355,102.49,102.51,102.47,102.395,102.445,102.48,102.31,102.23,102.08,101.99,102.115,102.035,102.055,102.11,102.04,102.045,102.04,101.95,102.11,102.07,102.25,102.32,102.32,102.29,102.289,102.3,102.2,102.33,102.38,102.38,102.45,102.56,102.455,102.425,102.405,102.5,102.53,102.5,102.35,102.37,102.325,102.23,102.26,102.36,102.23,102.35,102.37,102.33,102.35,102.27,102.14,102.2,102.09,102.17,102.22,102.32,102.33,102.26,102.23,102.33,102.23,102.25,102.15,102.21,102.18,102.19,102.22,102.18,102.12,102.18,102.2,102.205,102.22,102.17,102.16,102.13,102.06,102.09,102.04,102.05,102.09,102.067,102.045,102.01,102.005,102.11,102.13,102.12,102.03,102.12,102.13,102.13,102.17,102.1,102.05,102.11,102.125,102.11,102.12,102.17,102.18,102.13,102.125,102.105,102.12,102.085,102.19,102.16,102.18,102.185,102.25,102.25,102.26,102.365,102.29,102.3,102.285,102.265,102.25,102.2,102.13,102.15,102.11,102.14,102.1,102.05,102.07,102.02,102.08,102.05,102.155,102.16,102.185,102.225,102.29,102.24,102.25,102.3,102.35,102.42,102.42,102.375,102.345,102.36,102.29,102.29,102.32,102.36,102.45,102.42,102.38,102.49,102.43,102.45,102.4,102.41,102.4,102.375,102.4,102.43,102.475,102.47,102.45,102.44,102.43,102.44,102.365,102.35,102.36,102.46,102.5,102.49,102.49,102.53,102.565,102.48,102.47,102.4,102.41,102.38,102.405,102.42,102.4,102.48,102.44,102.48,102.475,102.54,102.48,102.44,102.45,102.39,102.295,102.31,102.29,102.22,102.2,102.15,102.18,102.24,102.27,102.06,102.08,102.05,101.975,101.93,101.885,101.82,101.83,101.76,101.67,101.53,101.5,101.48,101.47,101.485,101.53,101.565,101.5,101.45,101.5,101.62,101.63,101.69,101.63,101.71,101.69,101.76,101.79,101.76,101.789,101.715,101.7,101.765,101.7,101.78,101.72,101.775,101.74,101.685,101.74,101.725,101.66,101.59,101.65,101.7,101.7,101.68,101.65,101.65,101.65,101.67,101.69,101.65,101.668,101.7,101.68,101.7,101.63,101.68,101.73,101.68,101.68,101.765,101.74,101.73,101.745,101.75,101.8,101.78,101.785,101.83,101.74,101.72,101.665,101.68,101.72,101.805,101.9,101.93,101.9,101.925,101.925,101.945,101.96,101.95,101.91,101.98,101.885
2019-04-16,101.86,101.96,101.805,101.86,101.98,101.95,101.74,101.585,101.43,101.455,101.485,101.37,101.36,101.28,101.35,101.39,101.64,101.72,101.58,101.56,101.29,101.18,101.03,101.24,101.28,101.38,101.36,101.3,101.22,101.38,101.26,101.37,101.41,101.47,101.5,101.46,101.44,101.379,101.415,101.45,101.465,101.445,101.57,101.798,101.67,101.65,101.55,101.59,101.51,101.57,101.58,101.68,101.64,101.69,101.72,101.68,101.705,101.76,101.91,102.01,102.1,102.09,101.97,101.94,101.914,101.845,101.97,102.0,102.04,102.015,101.945,102.03,101.99,102.02,102.0,101.89,101.92,101.93,101.94,101.88,101.88,101.8,101.87,101.88,101.95,101.87,101.86,101.81,101.81,101.71,101.6,101.63,101.57,101.51,101.5,101.34,101.4,101.35,101.38,101.35,101.47,101.61,101.58,101.665,101.7,101.86,101.87,101.76,101.66,101.58,101.48,101.58,101.56,101.61,101.61,101.5,101.51,101.555,101.565,101.57,101.59,101.59,101.49,101.56,101.59,101.59,101.63,101.655,101.58,101.54,101.58,101.59,101.59,101.6,101.653,101.66,101.66,101.69,101.66,101.8,101.81,101.85,101.935,101.935,101.96,101.94,101.985,102.06,102.051,102.03,102.05,101.97,102.03,102.0,102.085,102.1,102.165,102.17,102.15,102.15,102.1,102.1,102.09,102.07,102.06,102.09,102.15,102.175,102.15,102.19,102.16,102.1,102.13,102.11,101.91,101.95,102.0,101.96,101.975,101.96,102.03,102.02,102.1,102.12,102.14,102.17,102.19,102.18,102.16,102.12,102.056,101.99,102.014,102.06,102.05,102.09,102.11,102.14,102.14,102.13,102.11,102.07,102.08,102.05,101.96,102.04,102.04,102.05,102.07,101.99,102.01,102.0,102.03,102.01,102.02,102.05,102.09,102.08,102.08,102.04,102.05,102.05,102.02,102.02,101.975,102.01,101.98,102.02,102.03,101.99,102.037,102.09,102.062,102.05,102.03,102.015,102.0,101.96,101.9,101.97,101.98,101.99,102.01,101.99,101.95,101.95,101.91,101.94,101.91,101.91,101.94,101.96,101.93,101.925,101.92,101.93,101.88,101.96,101.94,102.02,102.04,102.04,102.04,102.05,102.02,101.94,101.94,101.93,101.91,101.92,101.92,101.922,101.875,101.93,101.9,101.91,101.975,102.02,102.005,102.03,102.06,102.139,102.16,102.15,102.17,102.16,102.2,102.29,102.349,102.35,102.44,102.455,102.49,102.57,102.612,102.63,102.65,102.68,102.775,102.7,102.73,102.7,102.65,102.75,102.75,102.75,102.68,102.63,102.64,102.61,102.64,102.71,102.675,102.61,102.61,102.6,102.62,102.63,102.55,102.51,102.58,102.54,102.59,102.5,102.57,102.57,102.54,102.565,102.54,102.495,102.46,102.53,102.53,102.508,102.47,102.45,102.44,102.49,102.45,102.47,102.53,102.49,102.49,102.46,102.47,102.518,102.47,102.49,102.46,102.37,102.34,102.38,102.34,102.38,102.44,102.44,102.427,102.44,102.43,102.48,102.54,102.52,102.6,102.64,102.53,102.47,102.44,102.47,102.39,102.38,102.34,102.32,102.32,102.35,102.35,102.29,102.38,102.345,102.34,102.325,102.28,102.31,102.245,102.34,102.36,102.32,102.36,102.34,102.38,102.36
2019-04-17,103.19,103.375,103.42,103.7,103.593,103.7,103.54,103.39,103.57,103.435,103.6,103.5,103.73,103.61,103.86,103.86,103.99,103.79,103.71,103.74,103.64,103.84,103.76,103.66,103.63,103.735,103.88,103.76,103.91,,104.02,103.97,103.99,104.08,104.25,104.42,104.19,104.3,104.13,103.95,103.85,103.73,103.65,103.72,103.88,103.71,103.74,103.73,103.627,103.44,103.5,103.57,103.68,103.74,103.75,103.78,103.775,103.79,103.705,103.77,103.89,103.85,103.88,103.92,103.87,103.93,103.97,103.895,103.81,103.87,103.86,103.83,103.7,103.68,103.63,103.555,103.565,103.65,103.62,103.61,103.57,103.51,103.495,103.46,103.495,103.44,103.57,103.4,103.48,103.375,103.19,103.09,103.13,103.18,103.18,103.24,103.4,103.5,103.495,103.55,103.55,103.49,103.52,103.47,103.36,103.34,103.41,103.415,103.37,103.315,103.375,103.375,103.36,103.42,103.49,103.43,103.43,103.45,103.385,103.44,103.36,103.265,103.235,103.19,103.15,103.17,103.23,103.33,103.24,103.18,103.207,103.19,103.145,103.17,103.205,103.17,103.07,103.1,103.095,103.095,103.205,103.13,102.98,103.04,103.0,103.085,103.02,102.94,102.84,102.9,102.84,102.89,102.76,102.71,102.715,102.63,102.62,102.77,102.816,102.79,102.75,102.7,102.66,102.61,102.7,102.6,102.57,102.6,102.68,102.73,102.73,102.75,102.62,102.63,102.58,102.6,102.61,102.66,102.675,102.68,102.705,102.7,102.7,102.745,102.66,102.62,102.665,102.63,102.61,102.5,102.43,102.325,102.26,102.29,102.36,102.42,102.5,102.49,102.4,102.46,102.545,102.57,102.495,102.58,102.51,102.51,102.555,102.57,102.44,102.5,102.49,102.44,102.42,102.37,102.38,102.45,102.485,102.43,102.36,102.44,102.47,102.45,102.42,102.375,102.41,102.42,102.44,102.5,102.56,102.61,102.65,102.66,102.61,102.74,102.7,102.64,102.67,102.65,102.8,102.85,102.85,102.84,102.81,102.755,102.82,102.81,102.79,102.79,102.79,102.78,102.8,102.85,102.81,102.81,102.78,102.765,102.69,102.64,102.605,102.61,102.51,102.44,102.445,102.48,102.48,102.57,102.56,102.6,102.57,102.57,102.59,102.57,102.54,102.49,102.49,102.54,102.51,102.56,102.56,102.56,102.5,102.42,102.35,102.35,102.285,102.3,102.34,102.27,102.32,102.32,102.29,102.23,102.22,102.19,102.11,102.07,101.99,102.09,102.11,102.03,102.0,102.03,102.08,102.03,102.05,101.98,101.91,101.87,101.81,101.825,101.78,101.74,101.73,101.79,101.75,101.78,101.84,101.795,101.78,101.77,101.77,101.79,101.83,101.83,101.77,101.77,101.71,101.72,101.68,101.64,101.66,101.68,101.72,101.76,101.8,101.8,101.76,101.78,101.79,101.71,101.66,101.55,101.56,101.55,101.6,101.66,101.495,101.515,101.44,101.56,101.56,101.58,101.58,101.64,101.63,101.59,101.55,101.53,101.56,101.72,101.73,101.72,101.68,101.64,101.63,101.68,101.64,101.7,101.705,101.75,101.795,101.898,101.84,101.88,101.87,101.86,101.935,101.84,101.87,101.96,101.97,101.99,101.93,101.89,101.86,101.87,101.79,101.805,101.83,101.82
2019-04-18,101.95,102.08,102.08,102.303,102.11,102.03,101.91,101.55,101.741,101.87,101.73,101.93,101.9,102.13,102.15,102.065,102.1,102.04,102.11,102.17,102.21,102.3,102.185,102.22,102.16,102.07,102.08,102.175,102.2,102.32,102.32,102.21,102.21,102.135,102.142,102.24,102.2,102.27,102.34,102.36,102.365,102.41,102.41,102.41,102.48,102.45,102.49,102.535,102.51,102.51,102.445,102.51,102.43,102.47,102.5,102.47,102.49,102.5,102.62,102.625,102.625,102.65,102.71,102.74,102.7,102.69,102.7,102.7,102.73,102.81,102.76,102.645,102.66,102.685,102.715,102.72,102.83,102.87,102.905,102.95,102.97,102.93,102.91,102.94,102.88,102.905,102.955,102.96,103.109,103.02,103.1,103.18,103.18,103.17,103.19,103.02,103.05,103.09,103.078,103.21,103.24,103.23,103.26,103.21,103.07,103.075,103.02,102.98,103.03,103.07,103.08,103.01,103.11,103.16,103.18,103.09,103.26,103.23,103.27,103.33,103.43,103.49,103.56,103.63,103.6,103.645,103.61,103.61,103.71,103.715,103.73,103.74,103.74,103.63,103.68,103.65,103.56,103.55,103.701,103.59,103.57,103.66,103.6,103.52,103.57,103.49,103.58,103.66,103.74,103.7,103.71,103.86,103.86,103.974,104.08,104.1,104.09,104.06,104.08,103.98,103.89,103.91,103.745,103.88,103.93,103.86,103.83,103.79,103.76,103.75,103.83,103.82,103.87,103.8,103.75,103.835,103.83,103.79,103.86,103.79,103.77,103.8,103.82,103.78,103.82,103.83,103.73,103.77,103.7,103.67,103.74,103.68,103.66,103.71,103.77,103.76,103.79,103.88,103.9,103.97,103.94,103.94,103.978,104.05,104.1,104.07,104.001,104.0,103.98,103.985,104.08,104.05,104.09,104.17,104.12,104.086,104.144,104.19,104.02,104.07,104.13,104.2,104.17,104.24,104.215,104.2,104.18,104.18,104.16,104.23,104.2,104.2,104.142,104.135,104.23,104.18,104.22,104.15,104.15,104.13,104.145,104.12,104.12,104.167,104.19,104.17,104.21,104.24,104.2,104.23,104.26,104.23,104.2,104.2,104.17,104.135,104.19,104.09,104.061,104.07,104.05,104.118,104.07,104.06,104.0,104.0,104.07,104.12,104.07,104.04,104.12,104.19,104.2,104.04,104.1,103.98,103.95,103.9,103.9,103.89,103.92,103.87,103.758,103.73,103.66,103.67,103.72,103.76,103.66,103.715,103.75,103.73,103.73,103.755,103.81,103.8,103.76,103.76,103.77,103.825,103.89,103.857,103.845,103.9,103.85,103.885,103.97,103.92,103.92,103.94,103.91,103.89,103.885,103.94,103.95,103.94,103.975,103.98,103.92,103.921,103.9,103.8,103.741,103.69,103.644,103.68,103.68,103.65,103.72,103.7,103.7,103.67,103.615,103.54,103.453,103.429,103.37,103.33,103.41,103.605,103.635,103.69,103.78,103.77,103.78,103.84,103.86,103.845,103.9,103.84,103.86,103.95,104.02,104.01,104.03,104.09,104.22,104.15,104.06,104.17,104.16,104.09,104.09,104.05,104.085,104.13,104.13,104.11,104.03,104.07,104.12,104.14,104.09,104.09,104.16,104.217,104.17,104.19,104.27,104.25,104.23,104.155,104.12,104.09,104.02,103.98,103.96,103.95,103.92,103.88
2019-04-22,105.25,105.69,105.57,105.42,105.73,105.76,105.57,105.79,105.59,105.83,105.78,105.75,105.645,105.51,105.29,105.28,105.42,105.474,105.3,105.14,104.995,104.79,104.73,104.74,104.83,104.88,104.99,104.93,104.89,104.84,104.83,104.93,104.997,104.97,105.02,105.03,105.04,105.26,105.22,105.21,105.255,105.38,105.21,105.06,105.14,105.13,105.08,104.98,105.06,105.11,105.221,105.31,105.33,105.36,105.39,105.31,105.36,105.54,105.68,105.805,105.83,105.84,105.78,105.67,105.54,105.37,105.41,105.44,105.43,105.42,105.24,105.2,105.25,105.325,105.31,105.34,105.31,105.41,105.46,105.45,105.58,105.59,105.68,105.82,105.81,105.76,105.81,105.83,105.75,105.74,105.74,105.68,105.59,105.48,105.39,105.36,105.34,105.425,105.48,105.54,105.6,105.62,105.72,105.66,105.71,105.7,105.7,105.64,105.6,105.61,105.7,105.67,105.62,105.65,105.73,105.67,105.76,105.7,105.67,105.735,105.79,105.85,105.84,105.79,105.77,105.88,105.89,105.89,105.92,105.87,105.93,106.11,106.04,106.04,106.1,106.105,106.05,106.1,106.11,106.01,106.03,106.01,106.1,106.03,106.1,106.06,106.04,106.105,106.09,106.21,106.34,106.405,106.395,106.38,106.41,106.485,106.45,106.47,106.53,106.65,106.673,106.72,106.625,106.65,106.72,106.77,106.84,106.83,106.85,106.81,106.84,106.74,106.665,106.59,106.72,106.7,106.7,106.69,106.77,106.76,106.8,106.85,106.83,106.89,106.91,106.92,106.89,106.93,106.915,107.01,107.0,106.87,106.927,106.97,107.03,107.03,107.0,107.05,107.1,107.08,107.12,107.11,107.07,106.98,106.982,107.0,106.88,106.825,106.94,106.94,106.91,106.885,106.95,107.07,107.14,107.07,107.095,107.13,107.07,107.19,107.19,107.11,107.06,107.03,106.99,107.02,107.04,107.114,107.14,107.13,107.02,106.95,106.95,107.02,107.02,107.03,107.08,107.103,107.11,107.11,107.106,107.04,107.06,107.06,107.1,107.03,106.97,107.04,107.12,107.14,107.15,107.18,107.18,107.19,107.22,107.26,107.25,107.23,107.21,107.26,107.27,107.26,107.22,107.18,107.25,107.26,107.24,107.07,107.07,107.04,107.08,107.06,106.98,106.96,106.96,107.01,106.99,106.93,106.92,106.93,106.89,106.88,106.86,106.83,106.85,106.85,106.79,106.79,106.78,106.79,106.73,106.72,106.64,106.668,106.59,106.6,106.6,106.6,106.585,106.66,106.645,106.67,106.65,106.66,106.62,106.57,106.48,106.45,106.43,106.34,106.24,106.285,106.35,106.5,106.55,106.56,106.59,106.59,106.565,106.65,106.54,106.63,106.61,106.64,106.73,106.73,106.76,106.72,106.66,106.76,106.73,106.73,106.78,106.785,106.78,106.71,106.72,106.725,106.77,106.68,106.715,106.65,106.63,106.62,106.61,106.62,106.62,106.65,106.634,106.65,106.66,106.65,106.66,106.72,106.725,106.7,106.725,106.69,106.73,106.72,106.78,106.78,106.805,106.855,106.83,106.885,106.89,106.875,106.82,106.864,106.875,106.87,106.875,106.88,106.875,106.85,106.875,106.885,106.895,106.92,106.93,106.965,106.955,106.97,107.025,107.02,106.92,106.83,106.76,106.85
2019-04-23,106.97,106.77,106.75,106.984,107.15,107.19,107.321,107.55,107.205,107.21,106.76,106.82,106.69,106.81,106.87,106.9,107.04,107.02,107.02,106.88,106.79,106.62,106.44,106.39,106.2,106.25,106.12,105.86,105.89,106.14,106.02,106.08,106.139,106.19,106.1,106.17,106.17,106.07,106.05,106.08,105.92,105.94,106.1,105.96,105.98,105.88,105.675,105.73,105.62,105.56,105.44,105.5,105.63,105.66,105.825,106.04,106.01,106.09,106.36,106.15,106.11,106.12,106.23,106.31,106.36,106.375,106.28,106.36,106.36,106.39,106.493,106.5,106.62,106.64,106.618,106.62,106.61,106.63,106.59,106.57,106.56,106.61,106.545,106.59,106.75,106.74,106.8,106.8,106.815,106.875,106.89,106.939,107.07,107.01,107.09,107.2,107.2,107.03,107.02,107.06,107.08,107.16,107.2,107.24,107.24,107.3,107.21,107.2,107.22,107.23,107.26,107.2,107.06,106.935,106.85,107.03,106.94,106.82,106.81,106.82,106.82,106.84,106.9,106.75,106.54,106.625,106.61,106.63,106.63,106.68,106.8,106.695,106.73,106.65,106.64,106.69,106.71,106.73,106.71,106.63,106.585,106.71,106.78,106.96,106.95,107.06,107.07,107.02,107.0,107.11,107.08,107.105,107.075,107.081,107.16,107.12,107.25,107.32,107.36,107.36,107.33,107.377,107.38,107.37,107.48,107.49,107.48,107.5,107.35,107.34,107.37,107.33,107.315,107.344,107.35,107.355,107.46,107.521,107.52,107.45,107.46,107.46,107.405,107.37,107.37,107.27,107.29,107.35,107.53,107.61,107.56,107.58,107.59,107.42,107.46,107.52,107.61,107.745,107.6,107.53,107.583,107.64,107.71,107.737,107.7,107.58,107.625,107.75,107.79,107.72,107.67,107.63,107.585,107.67,107.72,107.64,107.61,107.66,107.6,107.52,107.55,107.51,107.51,107.54,107.58,107.58,107.54,107.57,107.61,107.595,107.63,107.61,107.58,107.6,107.41,107.4,107.25,107.21,107.31,107.39,107.33,107.315,107.26,107.28,107.315,107.34,107.38,107.39,107.42,107.4,107.45,107.39,107.41,107.38,107.38,107.39,107.34,107.39,107.385,107.43,107.45,107.485,107.525,107.51,107.49,107.57,107.55,107.489,107.52,107.56,107.525,107.57,107.55,107.57,107.58,107.66,107.68,107.69,107.7,107.709,107.74,107.82,107.785,107.815,107.8,107.82,107.74,107.78,107.815,107.84,107.84,107.8,107.73,107.8,107.52,107.405,107.48,107.435,107.45,107.585,107.47,107.37,107.34,107.34,107.31,107.28,107.28,107.21,107.23,107.25,107.22,107.24,107.23,107.2,107.24,107.28,107.25,107.265,107.23,107.19,107.17,107.15,107.11,107.05,107.11,107.06,107.04,107.09,107.16,107.12,107.1,106.96,106.9,106.815,106.78,106.84,106.81,106.81,106.84,106.78,106.74,106.87,106.89,106.84,106.85,106.925,107.005,106.94,106.94,106.91,106.84,106.9,106.87,106.915,106.97,106.95,106.93,106.98,106.945,106.9,106.88,106.98,106.91,106.955,106.97,106.91,106.94,106.95,106.985,106.97,106.97,106.92,106.94,106.967,106.93,106.94,106.83,106.75,106.73,106.84,106.87,106.885,106.9,106.89,106.88,106.88,106.85,106.85,106.85,106.8
2019-04-24,107.5,107.14,107.13,107.02,107.34,107.25,107.002,107.18,106.85,106.41,106.415,106.21,106.199,106.23,106.21,105.92,105.94,105.85,105.93,106.06,106.01,105.78,106.17,106.16,106.08,106.05,106.089,105.99,105.935,105.91,105.84,105.74,105.53,105.41,105.34,105.16,105.13,105.02,104.965,105.05,105.15,105.09,104.935,104.88,105.15,105.21,105.315,105.36,105.35,105.39,105.46,105.61,105.82,105.63,105.79,105.729,105.84,105.77,105.89,105.785,106.015,105.9,105.815,105.855,105.89,105.96,106.02,105.97,105.96,105.99,105.87,105.72,105.68,105.43,105.455,105.54,105.63,105.71,105.856,105.84,105.74,105.62,105.53,105.54,105.52,105.5,105.54,105.57,105.515,105.5,105.525,105.545,105.51,105.51,105.55,105.52,105.515,105.5,105.515,105.5,105.53,105.51,105.52,105.54,105.545,105.5,105.5,105.5,105.5,105.53,105.51,105.51,105.5,105.52,105.52,105.5,105.52,105.55,105.555,105.55,105.7,105.73,105.63,105.53,105.59,105.55,105.7,105.718,105.58,105.55,105.57,105.51,105.55,105.63,105.68,105.76,105.68,105.59,105.56,105.51,105.59,105.56,105.58,105.575,105.58,105.55,105.63,105.63,105.61,105.61,105.625,105.64,105.705,105.6,105.58,105.57,105.52,105.57,105.6,105.59,105.55,105.52,105.52,105.58,105.57,105.57,105.54,105.57,105.53,105.545,105.55,105.55,105.52,105.515,105.63,105.695,105.65,105.62,105.61,105.57,105.52,105.52,105.52,105.55,105.56,105.51,105.5,105.515,105.525,105.5,105.5,105.5,105.5,105.49,105.49,105.47,105.535,105.475,105.48,105.5,105.511,105.53,105.5,105.52,105.55,105.59,105.6,105.53,105.58,105.59,105.79,105.74,105.69,105.61,105.59,105.6,105.5,105.51,105.505,105.52,105.46,105.465,105.46,105.45,105.45,105.46,105.525,105.465,105.49,105.49,105.48,105.49,105.517,105.51,105.49,105.5,105.45,105.51,105.49,105.44,105.514,105.24,105.19,105.21,105.24,105.2,105.13,105.09,105.05,105.04,105.04,105.03,105.055,105.015,105.05,105.01,105.02,105.09,105.11,105.085,105.095,104.99,105.0,105.014,105.01,104.99,105.03,104.98,105.02,105.04,105.0,105.03,105.06,105.11,105.1,105.19,105.2,105.23,105.22,105.29,105.24,105.26,105.263,105.17,105.18,105.14,105.22,105.29,105.28,105.33,105.31,105.22,105.2,105.21,105.24,105.21,105.24,105.246,105.21,105.22,105.24,105.235,105.215,105.21,105.2,105.15,105.085,105.03,105.03,105.03,105.01,105.03,104.975,104.95,104.96,104.935,104.995,105.085,105.06,105.03,105.06,105.05,105.13,105.14,105.105,105.15,105.12,105.1,105.075,105.02,105.08,105.075,105.03,105.02,105.0,104.965,104.96,104.93,104.96,104.88,104.85,104.82,104.75,104.74,104.774,104.71,104.72,104.76,104.74,104.74,104.735,104.72,104.73,104.75,104.755,104.75,104.72,104.75,104.74,104.745,104.75,104.79,104.755,104.7,104.64,104.64,104.58,104.6,104.52,104.48,104.47,104.4,104.38,104.48,104.51,104.58,104.51,104.52,104.435,104.42,104.41,104.397,104.28,104.245,104.18,104.27,104.17,104.07,104.01,103.96
2019-04-25,103.98,103.82,103.65,103.92,103.54,103.73,103.84,103.81,104.03,104.005,103.92,103.58,103.77,103.74,103.85,103.82,103.785,103.78,103.71,103.71,103.755,103.93,104.05,103.86,103.882,103.696,103.865,103.88,103.81,103.94,103.77,103.805,103.63,103.56,103.56,103.64,103.53,103.67,103.56,103.45,103.38,103.35,103.36,103.37,103.29,103.15,103.12,103.14,103.13,103.13,103.18,103.23,103.31,103.37,103.48,103.535,103.62,103.64,103.55,103.57,103.6,103.4,103.29,103.28,103.21,103.12,103.36,103.41,103.52,103.52,103.55,103.45,103.36,103.41,103.42,103.49,103.58,103.53,103.56,103.61,103.67,103.74,103.72,103.67,103.725,103.51,103.47,103.39,103.34,103.4,103.3,103.23,103.26,103.38,103.63,103.66,103.74,103.73,103.7,103.84,103.75,103.77,103.865,103.91,103.9,103.8,103.7,103.62,103.64,103.78,103.8,103.94,103.9,104.03,103.96,104.02,103.975,103.85,103.97,103.87,103.85,103.79,103.7,103.61,103.67,103.81,103.82,103.92,103.92,103.94,104.0,103.97,103.93,103.88,103.89,103.81,103.93,103.96,103.89,103.97,103.88,103.97,103.94,103.91,103.99,104.01,103.98,104.0,104.1,104.04,103.98,104.05,104.07,104.03,103.92,104.01,103.97,103.9,103.83,103.87,103.87,103.89,103.89,103.85,103.85,103.85,103.92,103.84,103.79,103.83,103.79,103.75,103.79,103.79,103.81,103.79,103.8,103.755,103.72,103.66,103.63,103.63,103.66,103.67,103.61,103.626,103.66,103.68,103.69,103.7,103.7,103.74,103.73,103.7,103.69,103.7,103.69,103.66,103.689,103.71,103.63,103.58,103.57,103.6,103.57,103.59,103.64,103.61,103.63,103.611,103.65,103.68,103.68,103.64,103.65,103.62,103.6,103.56,103.62,103.6,103.58,103.63,103.65,103.68,103.66,103.62,103.56,103.49,103.545,103.57,103.58,103.58,103.54,103.57,103.57,103.58,103.56,103.51,103.62,103.64,103.64,103.6,103.64,103.64,103.63,103.67,103.68,103.67,103.65,103.68,103.68,103.62,103.61,103.6,103.623,103.54,103.56,103.62,103.52,103.487,103.45,103.42,103.4,103.36,103.32,103.32,103.33,103.33,103.27,103.24,103.21,103.19,103.19,103.15,103.25,103.24,103.21,103.18,103.12,103.075,103.1,103.04,102.96,103.01,103.0,103.0,102.98,102.978,102.96,103.05,103.01,102.85,102.858,102.82,102.86,102.89,102.83,102.77,102.825,102.805,102.95,102.93,103.0,103.025,103.02,103.04,102.91,102.88,102.915,102.84,102.71,102.65,102.73,102.7,102.68,102.69,102.69,102.735,102.86,102.831,102.85,102.92,102.91,102.83,102.84,102.88,102.91,102.86,102.87,102.79,102.84,102.84,102.84,102.81,102.81,102.75,102.71,102.74,102.72,102.73,102.7,102.64,102.63,102.64,102.605,102.485,102.47,102.395,102.37,102.44,102.445,102.525,102.58,102.575,102.625,102.57,102.67,102.81,102.92,102.935,103.01,102.91,102.81,102.9,102.87,102.82,102.75,102.77,102.82,102.785,102.79,102.8,102.77,102.75,102.79,102.81,102.84,102.81,102.76,102.59,102.56,102.55,102.57,102.565,102.6,102.56,102.44,102.24,102.17,102.1
2019-04-26,101.47,101.39,101.95,102.115,101.665,101.65,101.29,101.1,101.17,100.825,100.57,100.32,100.345,100.14,100.0,99.794,100.202,99.99,100.24,100.39,100.31,100.49,100.77,100.69,100.67,100.59,100.4,100.32,100.47,100.46,100.32,100.325,100.26,100.18,100.15,100.1,100.06,99.96,99.77,99.53,99.59,99.57,99.51,99.45,99.42,99.52,99.57,99.49,99.36,99.31,99.175,99.08,99.05,99.1,99.11,99.185,99.2,99.06,98.94,98.95,98.97,98.915,98.91,98.88,98.95,98.89,98.74,98.67,98.75,98.585,98.69,98.61,98.57,98.49,98.46,98.52,98.71,98.65,98.69,98.71,98.71,98.66,98.53,98.45,98.43,98.31,98.12,97.91,97.795,97.77,97.76,97.69,97.75,97.61,97.66,97.73,97.745,97.61,97.54,97.57,97.583,97.57,97.54,97.65,97.62,97.73,97.93,97.89,97.88,97.88,98.0,97.99,98.04,98.12,98.153,98.1,98.01,98.0,98.07,98.23,98.27,98.06,98.07,98.025,97.946,97.91,97.95,98.06,98.09,98.22,98.2,98.17,98.26,98.16,98.235,98.09,98.05,98.155,98.19,98.19,98.26,98.07,97.94,97.857,97.92,97.93,97.93,97.71,97.72,97.78,97.83,97.89,97.94,97.92,97.89,97.87,97.965,97.885,97.897,97.845,97.85,97.86,97.845,97.79,97.78,97.8,97.87,97.76,97.79,97.84,97.83,97.85,97.72,97.75,97.625,97.59,97.53,97.45,97.455,97.43,97.45,97.45,97.43,97.49,97.49,97.4,97.443,97.43,97.42,97.53,97.54,97.553,97.57,97.58,97.56,97.59,97.625,97.68,97.61,97.58,97.61,97.64,97.635,97.56,97.54,97.545,97.55,97.45,97.5,97.5,97.55,97.64,97.71,97.84,97.76,97.69,97.755,97.66,97.64,97.63,97.75,97.735,97.71,97.69,97.63,97.59,97.49,97.5,97.43,97.43,97.36,97.44,97.39,97.46,97.43,97.43,97.47,97.39,97.38,97.44,97.475,97.45,97.48,97.52,97.5,97.5,97.43,97.4,97.46,97.49,97.45,97.38,97.35,97.515,97.51,97.52,97.49,97.48,97.47,97.5,97.49,97.45,97.4,97.43,97.41,97.44,97.48,97.55,97.535,97.61,97.63,97.62,97.57,97.48,97.46,97.44,97.4,97.45,97.38,97.32,97.32,97.24,97.285,97.23,97.12,97.21,97.36,97.33,97.3,97.35,97.35,97.449,97.53,97.65,97.75,97.6,97.56,97.67,97.675,97.66,97.531,97.57,97.625,97.58,97.64,97.59,97.48,97.45,97.39,97.38,97.47,97.48,97.44,97.44,97.52,97.39,97.42,97.4,97.4,97.435,97.41,97.5,97.56,97.53,97.52,97.51,97.48,97.5,97.53,97.51,97.47,97.457,97.6,97.56,97.58,97.64,97.67,97.73,97.69,97.7,97.615,97.59,97.48,97.4,97.31,97.35,97.35,97.45,97.4,97.44,97.53,97.5,97.5,97.46,97.465,97.46,97.48,97.485,97.45,97.41,97.44,97.47,97.535,97.48,97.485,97.48,97.545,97.685,97.69,97.74,97.69,97.73,97.7,97.645,97.61,97.665,97.647,97.62,97.56,97.635,97.65,97.655,97.655,97.645,97.71,97.84,97.84,98.0,98.09,98.13
2019-04-29,98.0,97.94,98.07,98.05,98.23,98.36,98.04,98.04,97.65,97.45,97.73,97.81,97.9,98.09,98.01,97.925,98.0,98.01,98.1,98.05,97.91,97.8,97.74,97.67,97.55,97.54,97.49,97.445,97.36,97.28,97.18,97.47,97.63,97.72,97.77,97.72,97.81,97.8,97.63,97.49,97.43,97.38,97.442,97.36,97.26,97.215,96.97,96.99,97.12,97.12,97.16,97.125,97.05,97.11,97.04,96.97,97.005,96.94,96.84,96.76,96.89,97.0,97.1,97.08,97.09,97.17,97.11,97.105,97.085,97.04,96.98,96.944,97.04,97.002,96.97,96.98,97.015,96.93,96.94,97.06,97.125,97.0,97.03,97.008,96.92,96.94,97.0,96.94,96.83,96.89,96.94,96.87,96.96,96.89,96.935,96.95,96.87,96.96,96.95,96.94,96.94,96.92,96.95,96.96,96.93,96.78,96.86,96.86,96.87,96.89,96.88,96.87,97.0,97.07,97.07,97.0,97.07,97.16,97.28,97.21,97.24,97.48,97.46,97.57,97.65,97.69,97.73,97.61,97.535,97.67,97.61,97.46,97.42,97.4,97.39,97.31,97.28,97.34,97.34,97.36,97.39,97.35,97.42,97.4,97.35,97.33,97.28,97.34,97.28,97.485,97.51,97.43,97.5,97.53,97.57,97.64,97.67,97.61,97.6,97.68,97.74,97.76,97.73,97.62,97.57,97.67,97.64,97.58,97.66,97.63,97.63,97.6,97.595,97.65,97.63,97.57,97.58,97.51,97.55,97.55,97.6,97.565,97.535,97.46,97.43,97.48,97.49,97.53,97.555,97.57,97.57,97.62,97.57,97.75,97.67,97.64,97.64,97.7,97.78,97.85,97.83,97.76,97.68,97.7,97.67,97.68,97.6,97.59,97.605,97.62,97.61,97.65,97.65,97.63,97.56,97.515,97.52,97.545,97.59,97.64,97.6,97.725,97.68,97.58,97.61,97.62,97.69,97.63,97.63,97.59,97.6,97.58,97.64,97.655,97.63,97.62,97.577,97.605,97.55,97.53,97.59,97.56,97.58,97.6,97.57,97.585,97.57,97.505,97.5,97.46,97.53,97.48,97.48,97.51,97.565,97.565,97.6,97.531,97.58,97.62,97.69,97.69,97.675,97.65,97.66,97.72,97.625,97.64,97.61,97.64,97.64,97.62,97.65,97.67,97.66,97.6,97.58,97.59,97.675,97.67,97.6,97.59,97.56,97.51,97.577,97.59,97.53,97.55,97.51,97.421,97.48,97.49,97.5,97.545,97.52,97.55,97.46,97.47,97.49,97.49,97.45,97.44,97.41,97.56,97.49,97.48,97.412,97.44,97.43,97.38,97.32,97.34,97.29,97.35,97.29,97.33,97.32,97.36,97.34,97.31,97.21,97.205,97.195,97.11,97.1,97.07,96.96,97.0,96.91,96.92,96.91,96.93,96.99,97.005,97.06,97.07,97.085,97.075,97.03,97.07,97.08,97.08,97.02,97.07,97.079,97.08,97.11,97.06,96.98,96.98,96.99,97.02,97.01,97.01,96.94,96.89,96.84,96.85,96.895,96.93,97.01,97.04,97.065,97.04,97.05,97.05,97.08,97.15,97.175,97.15,97.17,97.19,97.15,97.165,97.155,97.18,97.15,97.19,97.21,97.21,97.2,97.19,97.11,97.14,97.14,97.13,97.14,97.115,97.11,97.12
2019-04-30,97.99,98.37,98.105,98.19,97.77,97.61,97.58,97.42,97.49,97.33,97.34,97.25,97.12,97.02,97.04,97.046,96.92,97.02,97.0,96.94,96.885,96.87,96.98,96.94,96.9,96.8,96.65,96.74,96.63,96.61,96.56,96.58,96.51,96.54,96.56,96.445,96.405,96.26,96.36,96.36,96.34,96.38,96.29,96.23,96.21,96.12,96.015,95.78,95.67,95.63,95.38,95.33,95.21,95.5,95.65,95.76,95.9,95.97,95.89,95.88,95.96,95.96,95.98,96.13,96.21,96.22,96.265,96.237,96.18,96.16,96.17,96.21,96.24,96.2,95.96,96.01,95.88,95.75,95.61,95.445,95.565,95.8,95.79,95.79,95.95,95.9,96.07,96.06,96.0,96.17,96.175,96.1,96.085,96.05,95.85,95.71,95.69,95.62,95.49,95.34,95.48,95.475,95.41,95.37,95.31,95.49,95.63,95.435,95.46,95.465,95.63,95.65,95.63,95.8,95.75,95.91,95.93,95.93,95.8,95.89,95.85,95.99,95.98,95.87,95.93,95.93,95.915,95.91,96.045,96.18,96.175,96.05,95.89,95.81,95.83,95.76,95.58,95.49,95.46,95.75,95.8,95.86,95.94,95.83,95.76,95.82,95.739,95.74,95.84,95.8,95.76,95.68,95.67,95.71,95.68,95.665,95.685,95.59,95.63,95.66,95.66,95.68,95.66,95.64,95.62,95.565,95.55,95.51,95.56,95.475,95.54,95.55,95.51,95.51,95.5,95.46,95.54,95.5,95.48,95.52,95.645,95.71,95.6,95.62,95.59,95.6,95.53,95.505,95.48,95.52,95.47,95.44,95.49,95.44,95.46,95.49,95.48,95.465,95.45,95.445,95.46,95.43,95.4,95.35,95.41,95.44,95.43,95.46,95.47,95.52,95.56,95.58,95.54,95.6,95.6,95.59,95.63,95.7,95.69,95.73,95.677,95.681,95.69,95.64,95.64,95.59,95.57,95.53,95.579,95.52,95.465,95.45,95.45,95.45,95.4,95.37,95.34,95.33,95.3,95.29,95.38,95.31,95.37,95.34,95.42,95.41,95.375,95.32,95.27,95.29,95.27,95.21,95.15,95.22,95.19,95.17,95.14,95.17,95.19,95.195,95.19,95.16,95.19,95.175,95.19,95.15,95.14,95.06,95.09,95.08,95.12,95.085,95.03,95.05,95.023,95.01,95.027,95.01,95.025,95.08,95.07,95.05,95.08,95.08,95.1,95.13,95.105,95.06,95.03,95.05,95.03,95.01,95.11,95.11,95.09,95.02,95.15,95.2,95.2,95.24,95.24,95.27,95.16,95.17,95.18,95.235,95.175,95.18,95.24,95.24,95.18,95.21,95.13,95.02,95.17,95.163,95.21,95.23,95.28,95.3,95.42,95.52,95.56,95.548,95.6,95.565,95.51,95.495,95.53,95.55,95.59,95.58,95.6,95.62,95.64,95.63,95.62,95.65,95.63,95.67,95.665,95.67,95.705,95.79,95.73,95.73,95.74,95.77,95.78,95.72,95.757,95.89,95.92,95.87,95.88,95.8,95.75,95.81,95.84,95.94,95.85,95.81,95.8,95.84,95.915,95.915,95.99,95.927,95.92,95.925,95.92,95.885,95.99,95.92,95.906,95.97,95.88,95.85,95.85,95.86,95.87,95.83,95.87,95.91,95.93,95.94,95.96,95.95,95.918,95.98
2019-05-01,95.84,96.04,96.38,96.29,95.82,95.92,95.77,95.875,95.74,95.58,95.57,95.42,95.38,95.29,95.41,95.57,95.83,95.74,95.72,95.82,95.59,95.75,95.51,95.48,95.4,95.44,95.33,95.24,95.22,95.17,95.03,95.0,94.94,94.94,94.83,94.88,94.94,95.08,95.24,95.21,95.14,95.23,95.28,95.13,95.06,95.13,95.04,95.12,95.15,95.2,95.23,95.3,95.3,95.26,95.28,95.265,95.255,95.22,95.045,95.0,95.01,94.61,94.69,94.77,94.684,94.805,94.84,94.91,94.88,94.95,94.9,94.66,94.73,94.735,94.765,94.88,94.84,94.75,94.78,94.79,94.72,94.56,94.54,94.54,94.5,94.41,94.27,94.25,94.335,94.24,94.17,94.185,94.11,94.115,94.11,94.14,94.19,94.13,94.11,93.985,94.07,94.15,94.08,94.1,94.05,94.02,94.01,93.905,93.935,94.025,94.0,93.96,93.91,93.97,93.99,94.0,94.04,93.99,93.968,94.005,93.94,93.99,93.96,93.95,93.95,93.96,93.92,93.935,93.94,94.01,93.98,93.995,94.25,94.24,94.24,94.16,94.18,94.15,94.135,94.04,94.05,94.065,94.18,94.06,94.06,94.04,94.07,94.05,94.065,93.959,94.05,94.01,93.95,93.96,93.99,94.04,94.02,93.96,93.882,93.85,93.77,93.71,93.745,93.692,93.55,93.53,93.65,93.62,93.565,93.46,93.46,93.46,93.59,93.55,93.6,93.65,93.64,93.66,93.65,93.63,93.62,93.53,93.47,93.46,93.44,93.46,93.495,93.49,93.4,93.38,93.38,93.4,93.36,93.33,93.38,93.32,93.34,93.29,93.21,93.21,93.2,93.2,93.11,93.1,93.15,93.2,93.27,93.38,93.37,93.44,93.45,93.51,93.42,93.34,93.46,93.45,93.42,93.34,93.48,93.34,93.402,93.41,93.45,93.39,93.34,93.48,93.48,93.454,93.43,93.44,93.46,93.405,93.35,93.24,93.36,93.375,93.36,93.297,93.26,93.33,93.26,93.22,93.24,93.31,93.255,93.39,93.38,93.36,93.47,93.49,93.51,93.53,93.58,93.585,93.559,93.45,93.43,93.475,93.43,93.528,93.555,93.48,93.51,93.54,93.54,93.54,93.53,93.52,93.505,93.49,93.47,93.49,93.41,93.38,93.44,93.5,93.68,93.7,93.81,93.65,93.62,93.5,93.52,93.59,93.63,93.59,93.58,93.73,93.79,93.79,93.75,93.727,93.722,93.83,93.85,93.85,93.83,93.763,93.8,93.68,93.64,93.53,93.54,93.5,93.395,93.44,93.385,93.42,93.4,93.3,93.28,93.16,93.2,93.16,93.14,93.15,93.11,93.06,93.06,93.1,93.125,93.21,93.21,93.26,93.45,93.47,93.46,93.53,93.452,93.45,93.44,93.565,93.45,93.395,93.27,93.29,93.3,93.3,93.34,93.31,93.29,93.3,93.26,93.29,93.24,93.24,93.25,93.3,93.31,93.27,93.24,93.23,93.185,93.14,93.095,92.997,93.0,92.96,92.97,92.995,92.97,92.95,92.86,92.77,92.83,92.76,92.78,92.69,92.7,92.68,92.66,92.64,92.72,92.7,92.77,92.67,92.585,92.59,92.55,92.545,92.54,92.539,92.57,92.55,92.59,92.49,92.34,92.34,92.26,92.2
2019-05-02,91.13,91.639,91.345,90.92,91.095,91.59,91.73,91.815,91.695,91.88,92.1,91.8,91.67,91.56,91.759,92.02,91.82,91.9,92.01,91.974,91.9,91.83,91.855,91.695,91.65,91.65,91.73,91.5,91.46,91.55,91.57,91.73,91.76,91.625,91.63,91.73,91.7,91.56,91.39,91.523,91.345,91.29,91.29,91.31,91.505,91.46,91.455,91.33,91.39,91.425,91.34,91.49,91.58,91.65,91.704,91.68,91.64,91.66,91.48,91.43,91.375,91.32,91.46,91.48,91.38,91.36,91.235,91.21,91.06,90.82,90.985,90.9,90.93,90.985,90.89,90.8,90.79,90.76,90.73,90.67,90.65,90.69,90.68,90.74,90.68,90.71,90.79,90.7,90.62,90.62,90.512,90.5,90.44,90.5,90.5,90.54,90.52,90.45,90.46,90.38,90.51,90.46,90.42,90.47,90.33,90.42,90.32,90.26,90.2,90.11,90.03,89.93,89.98,89.85,90.0,89.94,90.03,89.92,89.86,89.81,89.775,89.91,89.97,90.01,89.91,89.93,90.04,90.0,89.892,89.87,89.88,89.91,89.8,89.67,89.594,89.469,89.56,89.55,89.641,89.81,89.9,89.815,89.655,89.61,89.62,89.49,89.465,89.46,89.4,89.35,89.45,89.63,89.56,89.575,89.56,89.65,89.82,89.8,89.8,89.68,89.82,89.795,89.81,89.83,89.9,89.61,89.65,89.47,89.61,89.64,89.53,89.51,89.555,89.58,89.64,89.55,89.71,89.75,89.755,89.72,89.82,89.86,90.05,89.91,89.8,89.84,89.76,89.83,89.8,89.87,89.79,89.78,89.79,89.82,89.84,89.78,89.84,89.84,89.77,89.86,89.76,89.71,89.59,89.54,89.6,89.74,89.67,89.64,89.639,89.66,89.72,89.68,89.575,89.58,89.44,89.4,89.5,89.47,89.47,89.47,89.5,89.54,89.604,89.59,89.57,89.59,89.71,89.794,89.77,89.78,89.88,89.945,89.94,89.97,89.95,89.98,89.94,89.96,89.87,89.84,89.92,89.925,89.93,89.87,89.91,89.88,89.91,89.82,89.83,89.87,89.785,89.81,89.75,89.72,89.825,89.847,89.94,89.8,89.74,89.73,89.69,89.76,89.73,89.73,89.7,89.64,89.745,89.76,89.77,89.63,89.66,89.59,89.58,89.56,89.5,89.56,89.62,89.57,89.62,89.7,89.72,89.6,89.59,89.59,89.67,89.71,89.6,89.7,89.69,89.77,89.7,89.66,89.76,89.82,89.93,89.86,89.9,89.82,89.64,89.51,89.67,89.68,89.69,89.67,89.67,89.62,89.6,89.67,89.74,89.71,89.715,89.75,89.72,89.803,89.81,89.845,89.76,89.695,89.65,89.62,89.575,89.56,89.79,89.78,89.77,89.694,89.775,89.86,89.805,89.68,89.723,89.72,89.75,89.81,89.75,89.785,89.77,89.7,89.66,89.61,89.63,89.66,89.66,89.633,89.63,89.56,89.65,89.725,89.72,89.76,89.75,89.72,89.755,89.75,89.82,89.78,89.8,89.78,89.74,89.76,89.83,89.79,89.74,89.71,89.61,89.62,89.55,89.66,89.66,89.74,89.72,89.57,89.62,89.73,89.735,89.81,89.7,89.675,89.81,89.8,89.73,89.705,89.63,89.615,89.57,89.64,89.5,89.51,89.5,89.42
2019-05-03,91.75,92.27,92.35,92.13,91.85,92.19,91.84,91.37,91.455,91.14,91.015,91.3,91.13,91.14,91.26,91.25,90.948,90.15,90.05,90.53,90.495,90.7,90.87,90.94,90.925,90.92,91.13,91.02,90.94,90.99,91.21,90.99,90.85,91.28,91.53,91.67,91.73,91.94,91.96,91.82,91.705,91.81,91.9,91.9,91.92,91.88,91.93,92.06,92.19,92.24,92.3,92.255,92.35,92.4,92.31,92.53,92.62,92.71,92.955,93.07,92.86,92.95,92.88,92.82,92.91,93.0,92.87,92.93,92.93,93.0,92.98,93.055,93.01,93.04,93.044,93.01,93.06,93.04,93.09,93.02,93.02,92.91,92.99,92.99,93.0,92.94,93.01,93.0,92.97,93.0,92.98,92.97,93.04,93.41,93.31,93.2,93.38,93.35,93.195,93.35,93.58,93.4,93.127,93.301,93.14,93.05,93.0,92.99,92.755,92.75,92.56,92.42,92.53,92.67,92.7,92.74,92.91,92.86,92.82,92.75,92.86,92.76,92.855,92.74,92.901,92.73,92.745,92.795,92.82,92.76,92.8,92.74,92.74,92.75,92.821,92.75,92.74,92.68,92.615,92.66,92.65,92.74,92.785,92.76,92.6,92.695,92.73,92.62,92.7,92.6,92.61,92.7,92.68,92.77,92.71,92.75,92.85,92.87,92.916,92.905,92.92,92.88,92.9,92.72,92.74,92.77,92.8,92.84,92.75,92.77,92.785,92.77,92.78,92.8,92.8,92.77,92.77,92.76,92.75,92.78,92.79,92.86,92.9,92.86,92.75,92.75,92.76,92.77,92.78,92.83,92.89,92.922,92.98,93.03,93.03,93.03,92.84,92.91,92.94,93.02,93.02,92.99,92.91,92.95,92.945,92.71,92.64,92.74,92.763,92.76,92.76,92.75,92.79,92.8,92.73,92.64,92.67,92.76,92.73,92.715,92.68,92.67,92.69,92.68,92.66,92.66,92.67,92.61,92.66,92.68,92.66,92.76,92.75,92.66,92.65,92.69,92.74,92.705,92.6,92.61,92.63,92.69,92.6,92.54,92.41,92.29,92.225,92.15,92.08,92.13,92.105,92.17,92.205,92.19,92.02,92.035,92.1,92.08,92.12,92.19,92.09,92.205,92.145,92.1,92.12,91.935,91.86,91.78,91.88,91.865,91.805,91.75,91.74,91.71,91.72,91.74,91.82,91.85,91.81,91.88,91.92,91.91,91.966,92.05,92.04,92.03,92.15,92.15,92.16,92.12,92.15,92.2,92.235,92.19,92.105,92.04,91.93,91.95,91.9,91.85,91.9,91.83,91.83,91.795,91.78,91.8,91.77,91.71,91.7,91.655,91.64,91.7,91.645,91.69,91.715,91.76,91.8,91.82,91.75,91.74,91.74,91.79,91.901,92.05,92.06,92.12,92.165,92.055,91.99,91.895,91.85,91.85,91.815,91.72,91.774,91.76,91.77,91.85,91.85,91.88,91.94,91.79,91.765,91.769,91.77,91.74,91.68,91.695,91.74,91.69,91.67,91.68,91.69,91.67,91.7,91.69,91.76,91.745,91.82,91.78,91.61,91.635,91.65,91.59,91.57,91.64,91.625,91.515,91.53,91.58,91.595,91.665,91.6,91.46,91.47,91.51,91.44,91.44,91.22,91.27,91.29,91.39,91.355,91.35,91.34,91.5,91.53,91.55,91.56,91.47
2019-05-06,89.9,89.77,90.35,90.745,90.22,90.52,90.18,90.195,90.03,90.04,90.18,89.89,90.24,89.97,89.905,89.94,89.99,90.09,90.085,90.1,90.06,89.91,90.01,90.025,90.35,90.499,90.56,90.52,90.83,90.69,90.84,90.755,90.695,90.649,90.59,90.655,90.8,90.95,91.09,91.225,91.35,91.3,91.35,91.4,91.63,91.55,91.545,91.45,91.43,91.55,91.44,91.335,91.44,91.3,91.14,91.25,91.14,91.37,91.24,91.16,91.05,90.95,90.87,90.79,90.71,90.74,90.71,90.69,90.9,90.9,90.865,90.96,91.02,90.96,90.83,90.82,90.815,90.76,90.685,90.56,90.38,90.54,90.675,90.53,90.61,90.59,90.72,90.75,90.95,90.94,90.9,90.885,90.8,90.825,90.64,90.69,90.56,90.51,90.62,90.492,90.51,90.41,90.54,90.54,90.63,90.77,90.86,91.04,91.0,90.97,91.02,91.16,91.01,90.935,90.945,90.94,90.89,90.97,90.96,91.0,90.89,91.02,90.92,90.805,90.675,90.77,90.81,90.94,91.01,91.147,91.1,91.12,91.095,91.078,90.97,90.96,91.15,91.14,91.14,91.05,91.0,90.93,90.84,90.87,90.947,90.77,90.76,90.65,90.585,90.59,90.58,90.555,90.52,90.45,90.52,90.51,90.55,90.59,90.64,90.66,90.72,90.66,90.66,90.716,90.64,90.73,90.72,90.79,90.799,90.76,90.88,90.92,90.97,90.99,90.99,90.985,90.97,91.0,90.925,90.88,90.84,90.72,90.654,90.64,90.57,90.56,90.625,90.61,90.56,90.54,90.62,90.63,90.725,90.72,90.715,90.66,90.68,90.715,90.689,90.65,90.65,90.64,90.615,90.625,90.675,90.75,90.76,90.73,90.76,90.78,90.7,90.654,90.66,90.69,90.68,90.72,90.77,90.8,90.78,90.63,90.6,90.58,90.61,90.68,90.67,90.64,90.816,90.76,90.89,90.875,90.855,90.87,90.84,90.86,90.84,90.895,90.93,90.89,90.905,90.93,90.9,90.96,90.93,90.87,90.88,90.85,90.89,90.91,90.9,90.891,90.92,90.91,90.91,91.0,91.15,91.16,91.21,91.25,91.25,91.29,91.29,91.41,91.38,91.37,91.36,91.39,91.358,91.34,91.25,91.245,91.21,91.18,91.15,91.17,91.22,91.2,91.18,91.225,91.26,91.25,91.3,91.185,91.225,91.25,91.19,91.18,91.205,91.19,91.14,91.15,91.099,91.12,91.155,91.095,91.14,91.135,91.16,91.22,91.16,91.23,91.22,91.3,91.295,91.265,91.156,91.19,91.189,91.19,91.19,91.2,91.31,91.32,91.315,91.41,91.41,91.43,91.44,91.43,91.43,91.55,91.59,91.7,91.605,91.61,91.57,91.6,91.67,91.64,91.655,91.61,91.57,91.64,91.675,91.75,91.8,91.73,91.8,91.826,91.723,91.7,91.65,91.62,91.63,91.585,91.615,91.467,91.53,91.56,91.56,91.58,91.62,91.7,91.7,91.655,91.68,91.775,91.85,91.8,91.82,91.815,91.76,91.65,91.63,91.51,91.475,91.54,91.565,91.45,91.53,91.4,91.43,91.37,91.27,91.25,91.25,91.27,91.21,91.17,91.23,91.19,91.24,91.36,91.44,91.49,91.41,91.33,91.325,91.3,91.37,91.345
2019-05-07,90.15,89.97,89.925,89.895,89.935,89.96,89.865,89.925,90.64,90.675,90.61,90.35,90.66,90.645,90.56,90.48,90.435,90.5,90.264,90.095,89.91,89.7,89.83,90.29,90.24,90.36,90.51,90.7,90.7,90.66,90.74,90.65,90.447,90.63,90.61,90.78,90.73,90.64,90.796,90.791,90.75,90.79,90.89,91.0,91.065,91.15,91.05,90.95,90.97,91.08,91.08,91.27,91.19,91.26,91.22,91.16,91.19,91.32,91.25,91.41,91.28,91.29,91.1,91.07,90.85,90.646,90.45,90.51,90.59,90.72,90.64,90.9,90.96,91.04,90.92,90.87,90.955,90.81,90.77,90.77,90.59,90.63,90.62,90.635,90.61,90.56,90.62,90.6,90.575,90.595,90.6,90.8,90.57,90.44,90.47,90.485,90.425,90.5,90.46,90.55,90.54,90.68,90.74,90.59,90.73,90.65,90.765,90.73,90.68,90.7,90.67,90.58,90.655,90.65,90.63,90.65,90.665,90.73,90.9,90.85,91.04,91.046,91.13,91.1,90.96,90.845,90.75,90.75,90.61,90.7,90.76,90.87,90.8,90.85,90.8,90.85,90.9,90.91,90.875,90.88,90.81,90.67,90.67,90.77,90.72,90.77,90.7,90.63,90.63,90.525,90.43,90.52,90.465,90.44,90.495,90.63,90.66,90.78,90.82,90.775,90.81,90.83,90.825,90.85,90.81,90.7,90.78,90.795,90.73,90.73,90.76,90.73,90.74,90.77,90.8,90.75,90.76,90.7,90.71,90.88,90.86,90.88,90.92,90.97,90.87,90.86,90.88,90.93,90.94,90.93,90.93,90.9,90.89,90.93,90.91,90.88,90.93,90.94,90.91,90.94,90.9,90.9,90.99,90.966,90.83,90.78,90.71,90.65,90.61,90.73,90.73,90.705,90.66,90.7,90.632,90.63,90.54,90.595,90.46,90.4,90.38,90.37,90.425,90.468,90.532,90.52,90.5,90.472,90.558,90.52,90.4,90.375,90.4,90.35,90.33,90.47,90.45,90.43,90.44,90.36,90.39,90.24,90.25,90.29,90.425,90.53,90.445,90.45,90.3,90.34,90.32,90.32,90.24,90.28,90.17,90.255,90.28,90.308,90.37,90.445,90.52,90.49,90.565,90.56,90.62,90.58,90.52,90.61,90.54,90.545,90.5,90.56,90.6,90.605,90.57,90.69,90.76,90.76,90.755,90.77,90.78,90.79,90.774,90.81,90.83,90.78,90.795,90.71,90.66,90.69,90.7,90.73,90.73,90.755,90.67,90.61,90.66,90.565,90.595,90.57,90.57,90.559,90.47,90.47,90.45,90.54,90.612,90.62,90.73,90.71,90.69,90.77,90.75,90.7,90.62,90.61,90.64,90.63,90.665,90.65,90.61,90.68,90.684,90.72,90.81,90.97,90.99,90.99,91.069,91.05,91.04,91.045,91.03,90.94,90.95,90.93,90.92,90.86,90.95,91.06,91.11,91.15,91.24,91.3,91.29,91.268,91.23,91.21,91.25,91.25,91.18,91.17,91.155,91.14,91.12,91.07,91.07,91.03,91.04,91.09,91.055,91.063,91.08,91.08,91.04,91.03,91.01,91.01,91.01,91.03,91.065,91.16,91.185,91.31,91.35,91.44,91.48,91.43,91.485,91.515,91.43,91.49,91.545,91.58,91.705,91.71,91.76,91.69,91.75,91.715
2019-05-08,91.67,91.65,91.91,91.95,92.18,92.34,92.6,92.707,92.82,92.6,92.73,92.785,92.835,92.82,92.72,92.92,93.23,93.31,93.39,93.47,93.39,93.195,93.37,93.655,93.66,93.22,93.24,93.115,93.073,93.23,93.375,93.47,93.46,93.3,93.38,93.47,93.42,93.56,93.589,93.65,93.67,93.39,93.47,93.5,93.38,93.49,93.47,93.43,93.38,93.37,93.34,93.5,93.43,93.6,93.63,93.73,93.68,93.63,93.58,93.43,93.43,93.74,93.55,93.4,93.42,93.4,93.409,93.426,93.5,93.54,93.63,93.55,93.57,93.57,93.69,93.64,93.64,93.72,93.835,93.84,93.77,93.77,93.78,93.74,93.6,93.67,93.575,93.53,93.58,93.66,93.95,94.14,94.05,94.16,94.31,94.35,94.51,94.5,94.61,94.64,94.41,94.4,94.16,94.29,94.47,94.52,94.51,94.46,94.28,94.44,94.35,94.3,94.27,94.205,94.146,94.03,94.074,94.0,93.96,93.98,93.95,94.02,94.01,94.025,93.88,93.97,93.98,93.95,93.87,93.804,93.72,93.745,93.75,93.8,93.74,93.83,93.87,93.89,93.88,93.92,94.01,93.91,93.91,93.99,93.91,93.99,93.99,94.07,94.14,94.06,94.0,94.03,93.9,93.85,93.77,93.84,93.91,93.94,93.88,93.83,93.72,93.73,93.7,93.77,93.685,93.72,93.72,93.76,93.78,93.77,93.72,93.73,93.72,93.84,93.79,93.79,93.825,93.83,93.86,93.94,93.827,93.75,93.7,93.71,93.655,93.65,93.68,93.7,93.69,93.52,93.56,93.59,93.59,93.51,93.53,93.56,93.59,93.605,93.67,93.74,93.78,93.8,93.8,93.75,93.7,93.67,93.67,93.73,93.77,93.79,93.73,93.76,93.72,93.785,93.81,93.79,93.74,93.77,93.83,93.78,93.8,93.78,93.78,93.77,93.755,93.77,93.7,93.65,93.695,93.64,93.64,93.73,93.74,93.8,93.8,93.73,93.8,93.8,93.775,93.73,93.73,93.665,93.71,93.725,93.805,93.8,93.755,93.76,93.79,93.81,93.83,93.83,93.77,93.825,93.8,93.805,93.835,93.82,93.72,93.75,93.76,93.8,93.78,93.825,93.74,93.72,93.71,93.78,93.79,93.8,93.83,93.76,93.69,93.72,93.74,93.7,93.69,93.685,93.74,93.84,93.79,93.76,93.765,93.695,93.67,93.665,93.66,93.73,93.71,93.66,93.675,93.7,93.72,93.78,93.84,93.91,93.995,94.01,94.025,94.05,94.17,94.13,94.14,94.16,94.22,94.225,94.25,94.18,94.21,94.205,94.28,94.29,94.22,94.19,94.23,94.29,94.18,94.16,94.176,94.135,94.21,94.17,94.16,94.19,94.25,94.27,94.255,94.15,94.16,94.27,94.23,94.25,94.18,94.24,94.15,94.15,94.09,94.21,94.195,94.11,94.16,94.23,94.22,94.205,94.34,94.21,94.14,94.125,94.185,94.27,94.34,94.4,94.37,94.35,94.25,94.33,94.36,94.415,94.44,94.405,94.41,94.38,94.37,94.41,94.42,94.37,94.43,94.465,94.38,94.34,94.38,94.41,94.31,94.29,94.29,94.27,94.27,94.22,94.27,94.28,94.28,94.14,94.22,94.22,94.21,94.16,94.08,94.14,94.13,94.15
2019-05-09,92.68,92.24,92.78,92.85,92.75,92.88,92.78,92.82,92.92,93.155,93.27,93.2,93.17,93.0,92.76,92.66,92.56,92.53,92.6,92.6,92.56,92.32,92.14,92.28,92.41,92.33,92.36,92.41,92.525,92.64,92.87,92.78,92.75,92.63,92.74,92.82,92.85,92.88,92.91,92.99,92.95,92.88,92.9,92.94,92.86,92.91,92.84,92.74,92.59,92.63,92.48,92.66,92.695,92.7,92.75,92.74,92.7,92.82,92.83,92.91,93.125,93.08,93.105,93.04,93.09,93.01,92.96,92.95,92.805,92.74,92.79,92.78,92.89,93.15,93.25,93.25,93.31,93.38,93.44,93.41,93.355,93.4,93.43,93.41,93.46,93.37,93.41,93.42,93.41,93.38,93.375,93.475,93.49,93.465,93.51,93.59,93.57,93.53,93.475,93.564,93.65,93.77,93.755,93.75,93.86,93.89,93.72,93.65,93.55,93.59,93.605,93.495,93.47,93.39,93.3,93.43,93.33,93.225,93.14,93.2,93.25,93.244,93.33,93.42,93.46,93.46,93.48,93.51,93.48,93.64,93.67,93.74,93.54,93.61,93.71,93.76,93.77,93.69,93.808,93.76,93.88,93.88,93.76,93.69,93.71,93.8,93.87,93.86,93.8,93.77,93.91,93.95,93.92,93.9,93.82,93.89,93.84,93.86,93.99,93.96,93.965,93.94,93.98,93.98,93.98,93.99,93.93,94.01,94.135,94.16,94.18,94.03,94.0,94.05,94.07,93.98,94.27,94.24,94.23,94.32,94.34,94.37,94.54,94.55,94.54,94.56,94.67,94.72,94.69,94.74,94.8,94.89,94.87,94.59,94.646,94.74,94.735,94.64,94.605,94.54,94.59,94.565,94.53,94.68,94.75,94.72,94.75,94.79,94.72,94.84,94.93,95.03,95.046,95.07,95.035,95.0,94.96,94.84,94.8,94.77,94.78,94.8,94.64,94.74,94.8,94.78,94.67,94.61,94.57,94.53,94.57,94.51,94.53,94.5,94.53,94.57,94.59,94.6,94.58,94.63,94.67,94.661,94.66,94.67,94.66,94.66,94.69,94.7,94.58,94.605,94.65,94.62,94.67,94.69,94.69,94.62,94.61,94.57,94.577,94.698,94.77,94.71,94.72,94.67,94.645,94.655,94.665,94.71,94.731,94.715,94.71,94.83,94.81,94.65,94.59,94.61,94.74,94.78,94.71,94.73,94.735,94.84,94.805,94.75,94.803,94.79,94.77,94.77,94.755,94.7,94.68,94.74,94.708,94.72,94.76,94.67,94.64,94.53,94.435,94.52,94.43,94.43,94.51,94.588,94.5,94.38,94.46,94.4,94.38,94.45,94.42,94.45,94.505,94.515,94.43,94.38,94.36,94.341,94.34,94.263,94.27,94.31,94.37,94.37,94.36,94.35,94.33,94.26,94.25,94.15,94.2,94.09,94.12,94.12,94.185,94.16,94.15,94.11,94.02,93.905,93.885,93.93,93.95,94.02,94.01,93.99,94.0,94.03,93.99,94.04,94.035,94.08,94.1,94.13,94.16,94.16,94.15,94.145,94.15,94.16,94.23,94.3,94.3,94.39,94.34,94.41,94.32,94.27,94.371,94.36,94.38,94.325,94.28,94.27,94.31,94.32,94.32,94.3,94.31,94.34,94.22,94.35,94.35,94.32,94.315,94.34,94.36,94.35,94.32,94.35
2019-05-10,94.36,94.0,93.73,93.91,94.11,93.95,94.15,93.99,94.105,94.2,94.31,94.24,94.15,94.11,93.81,93.835,93.91,94.02,94.06,94.01,93.78,93.66,93.51,93.72,93.74,93.705,93.7,93.7,93.68,93.74,93.68,93.55,93.54,93.68,93.57,93.475,93.42,93.42,93.33,93.45,93.465,93.39,93.48,93.44,93.31,93.3,93.06,92.905,93.03,92.95,92.915,92.9,92.91,92.91,92.825,92.94,93.07,93.19,93.128,93.14,93.1,93.15,93.07,93.0,93.02,93.05,93.01,92.91,92.85,92.72,92.86,92.71,92.71,92.74,92.83,92.83,93.012,93.11,93.15,93.06,92.98,93.03,93.17,93.2,93.18,93.06,93.12,93.163,93.24,93.24,93.215,93.17,93.2,93.07,93.103,93.2,93.26,93.29,93.22,93.167,93.05,93.04,93.07,93.1,93.235,93.21,93.12,93.28,93.335,93.36,93.48,93.54,93.625,93.69,93.58,93.58,93.56,93.63,93.64,93.63,93.62,93.44,93.39,93.44,93.47,93.45,93.45,93.51,93.54,93.675,93.61,93.63,93.545,93.28,93.32,93.48,93.39,93.43,93.36,93.35,93.27,93.35,93.56,93.57,93.47,93.56,93.56,93.575,93.64,93.68,93.67,93.75,93.68,93.676,93.7,93.65,93.63,93.59,93.55,93.56,93.56,93.55,93.68,93.8,93.82,93.74,93.76,93.86,93.77,93.86,93.88,93.82,93.83,93.85,93.92,93.87,93.9,93.95,94.03,94.08,94.1,94.1,94.11,94.19,94.285,94.33,94.35,94.36,94.255,94.25,94.19,94.165,94.07,94.095,94.14,94.21,94.1,94.13,94.17,94.11,94.13,94.11,94.18,94.23,94.3,94.32,94.32,94.26,94.27,94.26,94.335,94.3,94.43,94.46,94.44,94.444,94.35,94.37,94.39,94.38,94.45,94.39,94.37,94.4,94.24,94.31,94.26,94.215,94.28,94.38,94.39,94.49,94.54,94.4,94.43,94.47,94.5,94.455,94.524,94.51,94.46,94.51,94.53,94.55,94.58,94.56,94.6,94.52,94.48,94.54,94.56,94.62,94.55,94.47,94.48,94.56,94.63,94.58,94.55,94.67,94.64,94.6,94.63,94.61,94.628,94.55,94.55,94.515,94.49,94.59,94.57,94.56,94.58,94.65,94.63,94.64,94.6,94.69,94.69,94.68,94.7,94.72,94.68,94.65,94.58,94.51,94.42,94.46,94.38,94.35,94.27,94.27,94.2,94.12,94.09,94.04,94.03,94.16,94.19,94.21,94.22,94.18,94.21,94.25,94.28,94.25,94.23,94.26,94.32,94.38,94.42,94.425,94.41,94.38,94.39,94.4,94.35,94.39,94.431,94.41,94.42,94.445,94.465,94.56,94.55,94.54,94.52,94.52,94.6,94.59,94.65,94.68,94.73,94.71,94.7,94.78,94.79,94.756,94.7,94.69,94.74,94.73,94.8,94.76,94.74,94.84,94.84,94.88,94.963,95.06,95.1,95.12,95.02,95.1,95.13,95.085,95.18,95.24,95.18,95.235,95.155,95.11,94.985,94.97,94.91,94.825,94.715,94.77,94.78,94.77,94.69,94.69,94.65,94.65,94.63,94.6,94.72,94.76,94.71,94.62,94.64,94.72,94.71,94.76,94.82,94.79,94.83,94.87,94.9,94.943
2019-05-13,93.94,94.23,94.27,93.94,94.11,94.338,94.51,94.518,94.525,94.57,94.59,94.555,94.8,94.68,94.63,94.5,94.54,94.59,94.81,94.76,94.62,94.39,94.49,94.365,94.34,94.27,94.31,94.24,94.34,94.31,94.36,94.286,94.14,94.05,94.075,94.08,94.06,93.95,94.05,93.84,93.78,93.58,93.677,93.705,93.76,93.825,93.85,93.91,94.15,94.163,94.1,93.97,93.9,94.0,94.007,94.09,94.13,94.01,94.08,94.13,94.265,94.27,94.34,94.346,94.32,94.41,94.59,94.605,94.41,94.61,94.89,94.91,95.075,95.22,95.24,95.16,95.25,95.15,95.08,94.91,94.77,94.87,94.845,94.83,94.8,94.69,94.68,94.685,94.685,94.81,94.945,94.94,94.65,94.62,94.51,94.51,94.433,94.55,94.696,94.575,94.505,94.45,94.53,94.44,94.41,94.265,94.235,94.053,94.03,94.09,94.13,94.18,94.195,94.09,94.25,94.13,94.004,93.95,93.885,94.0,94.05,94.05,94.0,93.99,94.035,93.97,93.945,93.88,93.8,93.79,93.74,93.68,93.82,93.89,93.85,93.875,93.94,93.873,93.748,93.8,93.88,93.71,93.7,93.65,93.598,93.59,93.625,93.66,93.78,93.715,93.79,93.76,93.84,93.835,93.785,93.79,93.79,93.8,93.79,93.69,93.63,93.79,93.71,93.65,93.73,93.63,93.64,93.612,93.75,93.81,93.8,93.755,93.82,93.86,93.765,93.8,93.89,93.92,93.81,93.91,93.78,93.62,93.67,93.691,93.89,93.69,93.84,93.815,93.925,94.0,94.015,93.92,93.87,93.83,93.805,93.9,93.91,93.99,94.03,94.06,93.975,94.04,94.05,94.05,94.0,93.95,93.76,93.76,93.97,93.99,93.91,93.8,93.71,93.66,93.82,93.81,93.78,93.71,93.82,93.625,93.545,93.64,93.7,93.75,93.74,93.665,93.65,93.62,93.86,93.83,93.75,93.71,93.8,93.74,93.79,93.87,93.82,93.76,93.74,93.67,93.615,93.84,93.875,93.86,93.7,93.748,93.81,93.86,93.83,93.97,93.89,93.82,93.78,93.74,93.7,93.67,93.63,93.6,93.55,93.67,93.69,93.6,93.62,93.625,93.55,93.64,93.645,93.65,93.6,93.65,93.66,93.71,93.7,93.765,93.83,93.85,93.825,93.85,93.87,93.85,93.85,93.726,93.7,93.69,93.675,93.6,93.57,93.56,93.63,93.75,93.56,93.62,93.635,93.58,93.57,93.67,93.88,93.88,93.88,93.91,93.8,93.89,93.8,93.835,93.685,93.65,93.639,93.62,93.68,93.73,93.713,93.73,93.69,93.65,93.48,93.61,93.645,93.74,93.78,93.81,93.79,93.8,93.77,93.78,93.82,93.84,93.86,93.88,93.96,93.93,93.83,93.87,93.84,93.795,93.69,93.74,93.66,93.71,93.68,93.71,93.6,93.69,93.63,93.6,93.5,93.42,93.48,93.47,93.48,93.4,93.4,93.355,93.34,93.31,93.397,93.32,93.28,93.25,93.28,93.35,93.285,93.31,93.31,93.38,93.37,93.36,93.4,93.32,93.34,93.34,93.41,93.34,93.34,93.35,93.36,93.34,93.35,93.41,93.46,93.47,93.45,93.43,93.43,93.45,93.4,93.42,93.55,93.525,93.52,93.6
2019-05-14,93.92,94.1,94.5,94.47,94.6,94.49,94.525,94.56,94.53,94.47,94.4,94.39,94.44,94.36,94.495,94.49,94.59,94.468,94.52,94.54,94.18,94.17,94.085,94.14,94.04,94.07,94.28,94.36,94.377,94.37,94.45,94.525,94.684,94.755,94.51,94.53,94.51,94.68,94.71,94.68,94.75,94.615,94.67,94.635,94.43,94.475,94.63,94.67,94.65,94.8,94.86,94.895,94.905,94.89,94.85,94.843,94.85,94.86,94.93,95.05,95.02,94.98,94.975,95.09,95.16,95.03,95.05,95.05,95.03,95.078,95.125,95.12,95.13,95.095,95.03,95.04,95.09,95.04,95.084,95.01,94.98,94.935,94.95,94.86,94.78,94.69,94.73,94.625,94.59,94.59,94.59,94.655,94.59,94.55,94.43,94.57,94.72,94.845,94.785,94.74,94.62,94.69,94.74,94.765,94.735,94.81,94.8,94.79,94.87,94.935,94.97,94.97,94.859,94.775,94.821,94.94,94.87,94.9,94.804,94.785,94.82,94.79,94.9,94.83,94.81,94.88,95.016,94.98,94.96,94.93,94.81,94.93,94.96,94.97,94.845,94.79,94.9,94.87,94.91,95.035,95.03,94.95,95.04,95.08,95.15,95.15,95.24,95.189,95.125,95.08,95.09,95.09,95.097,95.15,95.19,95.31,95.28,95.22,95.12,95.14,95.21,95.13,95.07,95.07,95.13,95.1,94.935,95.04,95.02,94.91,94.895,94.88,94.92,94.928,94.86,94.73,94.79,94.86,94.794,94.8,94.82,94.85,94.86,94.94,94.95,94.97,94.955,94.921,95.02,95.01,95.0,95.05,95.09,95.08,95.06,94.97,95.05,95.01,95.03,95.09,95.08,95.09,95.085,95.07,95.126,95.13,95.105,95.13,95.12,95.055,95.05,95.059,95.04,95.025,95.02,95.02,95.02,95.11,95.14,95.08,95.065,95.15,95.16,95.24,95.22,95.27,95.25,95.22,95.19,95.22,95.18,95.13,95.11,95.2,95.21,95.18,95.184,95.17,95.18,95.18,95.18,95.185,95.19,95.13,95.125,95.12,95.13,95.14,95.14,95.05,95.06,95.05,94.985,94.91,94.935,94.926,94.87,94.88,94.89,94.83,94.88,94.93,94.89,94.94,,94.95,94.985,94.95,94.98,94.931,94.93,94.91,94.92,94.815,94.81,94.79,94.815,94.75,94.68,94.7,94.79,94.78,94.85,94.82,94.86,94.84,94.78,94.84,94.85,94.79,94.789,94.76,94.735,94.73,94.8,94.81,94.76,94.72,94.672,94.73,94.64,94.63,94.62,94.61,94.64,94.66,94.6,94.57,94.59,94.6,94.63,94.65,94.57,94.59,94.6,94.57,94.555,94.46,94.41,94.39,94.345,94.31,94.25,94.35,94.31,94.23,94.34,94.37,94.32,94.34,94.34,94.34,94.365,94.4,94.47,94.475,94.43,94.42,94.43,94.46,94.54,94.465,94.47,94.415,94.38,94.39,94.36,94.3,94.32,94.39,94.365,94.375,94.35,94.31,94.3,94.29,94.33,94.44,94.43,94.495,94.4,94.3,94.31,94.34,94.23,94.21,94.2,94.16,94.15,94.18,94.19,94.183,94.15,94.19,94.26,94.23,94.1,94.2,94.28,94.28,94.32,94.29,94.27,94.22,94.23,94.38,94.32,94.225,94.29,94.27
2019-05-15,93.39,93.71,93.59,93.34,93.5,93.63,93.6,93.78,93.76,93.74,93.808,93.705,93.76,93.65,93.73,93.63,93.71,93.72,93.93,93.8,93.85,93.7,93.665,93.55,93.74,93.76,93.87,93.64,93.69,93.55,93.55,93.52,93.56,93.4,93.45,93.39,93.315,93.33,93.445,93.43,93.37,93.44,93.38,93.195,93.485,93.87,93.74,93.615,93.625,93.66,93.55,93.47,93.61,93.544,93.55,93.52,93.68,93.67,93.66,93.64,93.7,93.64,93.68,93.78,93.86,93.73,93.6,93.67,93.76,93.81,93.8,93.77,93.74,93.835,93.85,93.9,93.93,94.075,94.013,93.96,94.03,94.05,94.11,94.12,94.07,94.07,94.04,93.91,93.95,93.96,93.91,93.82,93.73,93.68,93.64,93.68,93.705,93.78,93.79,93.77,93.8,93.97,93.89,94.0,94.064,94.01,94.07,94.04,94.03,94.015,94.13,94.11,94.04,94.07,94.12,94.185,94.35,94.33,94.32,94.32,94.4,94.33,94.16,94.22,94.32,94.25,94.23,94.11,94.145,94.17,94.23,94.27,94.26,94.34,94.349,94.36,94.24,94.24,94.24,94.27,94.3,94.25,94.3,94.29,94.32,94.27,94.29,94.29,94.36,94.41,94.45,94.52,94.51,94.5,94.57,94.55,94.55,94.47,94.45,94.55,94.535,94.46,94.5,94.445,94.46,94.48,94.4,94.42,94.4,94.37,94.36,94.42,94.41,94.376,94.34,94.32,94.29,94.32,94.42,94.4,94.42,94.42,94.47,94.438,94.46,94.45,94.35,94.33,94.32,94.31,94.28,94.23,94.26,94.26,94.23,94.27,94.23,94.15,94.19,94.2,94.25,94.29,94.279,94.24,94.33,94.43,94.47,94.36,94.315,94.3,94.257,94.26,94.325,94.35,94.36,94.36,94.32,94.33,94.34,94.36,94.32,94.29,94.27,94.26,94.26,94.19,94.24,94.21,94.189,94.18,94.17,94.2,94.17,94.12,94.11,94.083,94.11,94.1,94.14,94.165,94.14,94.195,94.26,94.255,94.27,94.3,94.26,94.33,94.39,94.341,94.385,94.4,94.33,94.34,94.29,94.27,94.21,94.2,94.18,94.18,94.19,94.18,94.19,94.2,94.205,94.25,94.22,94.19,94.2,94.21,94.19,94.21,94.15,94.15,94.18,94.2,94.24,94.19,94.235,94.24,94.29,94.29,94.17,94.2,94.14,94.14,94.21,94.26,94.25,94.21,94.197,94.225,94.31,94.33,94.38,94.37,94.32,94.32,94.29,94.265,94.29,94.245,94.205,94.27,94.259,94.26,94.24,94.17,94.15,94.15,94.175,94.195,94.2,94.196,94.3,94.36,94.38,94.35,94.375,94.41,94.38,94.39,94.38,94.336,94.32,94.23,94.2,94.32,94.24,94.22,94.23,94.26,94.25,94.21,94.13,94.14,94.16,94.11,94.12,94.085,94.075,94.08,94.1,94.12,94.129,94.12,94.12,94.2,94.16,94.3,94.328,94.34,94.36,94.3,94.36,94.35,94.4,94.39,94.37,94.385,94.445,94.47,94.4,94.39,94.37,94.445,94.47,94.43,94.5,94.48,94.48,94.51,94.54,94.58,94.56,94.58,94.58,94.56,94.57,94.53,94.56,94.6,94.62,94.61,94.59,94.6,94.49,94.445,94.48,94.46
2019-05-16,95.0,95.33,95.29,95.36,95.53,95.26,95.28,95.351,95.1,95.35,95.41,95.58,95.57,95.75,95.473,95.11,94.91,94.94,94.87,95.18,95.1,95.13,95.22,95.37,95.51,95.67,95.77,95.71,95.59,95.67,95.63,95.51,95.55,95.56,95.59,95.53,95.5,95.46,95.6,95.51,95.53,95.44,95.335,95.31,95.39,95.48,95.44,95.36,95.4,95.33,95.38,95.4,95.44,95.36,95.46,95.55,95.49,95.44,95.37,95.55,95.58,95.68,95.55,95.545,95.51,95.58,95.55,95.6,95.63,95.69,95.73,95.76,,95.84,95.8,95.6,95.67,95.73,95.65,95.68,95.71,95.61,95.515,95.54,95.7,95.58,95.61,95.55,95.67,95.72,95.78,95.87,95.94,96.04,96.07,95.87,95.83,95.97,95.95,95.89,95.86,95.81,95.86,95.93,95.84,95.91,95.965,95.975,96.05,96.04,96.03,95.99,96.01,96.073,96.08,96.0,95.94,96.0,96.05,95.98,96.02,96.01,96.06,95.98,96.01,96.0,95.92,95.73,95.88,95.92,95.95,95.98,95.96,96.01,95.97,95.94,95.99,95.926,95.955,95.95,96.01,96.049,95.97,95.95,96.055,96.01,96.09,96.1,96.175,96.24,96.16,96.15,96.17,96.14,96.1,96.02,96.09,96.14,96.16,96.13,96.08,96.04,96.02,96.01,96.07,96.01,95.95,96.015,96.07,96.01,95.96,95.89,95.92,95.915,95.9,95.96,95.88,95.95,95.93,95.86,95.89,95.901,95.915,95.93,95.91,95.96,95.99,95.99,95.955,96.05,95.99,95.953,95.97,95.95,95.93,95.9,95.865,95.86,95.84,95.86,95.85,95.87,95.85,95.89,95.895,95.85,95.89,95.92,95.87,95.93,95.83,95.83,95.8,95.71,95.7,95.68,95.69,95.78,95.77,95.81,95.77,95.78,95.81,95.83,95.78,95.79,95.78,95.74,95.765,95.77,95.8,95.78,95.75,95.79,95.79,95.75,95.74,95.8,95.78,95.78,95.76,95.76,95.8,,95.81,95.81,95.78,95.722,95.73,95.677,95.68,95.66,95.64,95.6,95.65,95.62,95.66,95.64,95.56,95.51,95.49,95.49,95.485,95.48,95.46,95.44,95.501,95.575,95.575,95.565,95.68,95.65,95.688,95.71,95.7,95.744,95.7,95.66,95.63,95.64,95.59,95.58,95.59,95.59,95.63,95.62,95.66,95.69,95.715,95.75,95.72,95.69,95.71,95.75,95.75,95.8,95.79,95.77,95.73,95.67,95.73,95.7,95.68,95.65,95.65,95.66,95.687,95.69,95.79,95.85,95.84,95.84,95.83,95.86,95.87,95.91,95.92,95.93,95.82,95.84,95.81,95.81,95.76,95.74,95.69,95.65,95.64,95.66,95.58,95.62,95.6,95.56,95.617,95.542,95.64,95.65,95.725,95.685,95.57,95.58,95.56,95.53,95.532,95.47,95.45,95.42,95.45,95.491,95.38,95.39,95.385,95.42,95.47,95.5,95.5,95.56,95.55,95.61,95.55,95.63,95.56,95.51,95.49,95.49,95.46,95.49,95.47,95.48,95.355,95.32,95.295,95.25,95.04,95.09,95.04,95.07,95.12,95.1,95.04,95.05,95.13,95.175,95.21,95.255,95.35,95.32,95.265,95.22,95.225,95.25
2019-05-17,94.27,94.47,94.52,94.625,94.59,94.475,94.45,94.5,94.46,94.335,94.25,94.26,94.23,94.25,94.35,94.4,94.31,94.28,94.32,94.23,94.25,94.0,94.05,93.92,,94.04,94.18,94.1,94.06,94.21,94.22,94.28,94.29,94.17,94.09,94.11,94.08,94.06,93.97,94.012,94.02,94.04,93.953,93.86,93.835,93.75,93.8,93.78,93.79,93.9,93.95,94.03,94.09,94.19,94.12,94.14,94.04,94.07,94.06,94.06,93.93,93.94,93.885,93.885,93.88,93.85,93.69,93.53,93.54,93.495,93.365,93.39,93.35,93.32,93.44,93.45,93.41,93.29,93.36,93.383,93.479,93.69,93.7,93.73,93.85,93.91,93.97,94.055,94.09,93.94,93.9,93.97,93.89,93.96,93.98,93.99,94.075,94.135,94.24,94.035,93.97,93.91,93.92,93.97,94.075,93.99,94.0,94.015,94.08,94.15,94.24,94.14,94.16,94.1,94.12,94.03,93.99,93.9,93.84,93.81,93.87,93.78,93.73,93.76,93.72,93.75,93.78,93.81,93.75,93.76,93.77,93.66,93.66,93.585,93.5,93.54,93.58,93.615,93.56,93.56,93.545,93.56,93.62,93.58,93.63,93.67,93.63,93.705,93.69,93.75,93.77,93.695,93.73,93.81,93.81,93.79,93.64,93.73,93.69,93.62,93.56,93.5,93.405,93.44,93.46,93.34,93.295,93.32,93.33,93.43,93.39,93.36,93.35,93.43,93.435,93.35,93.37,93.33,93.315,93.24,93.2,93.15,93.07,93.06,93.05,93.05,93.09,93.09,93.11,93.11,93.09,93.01,93.12,93.15,93.12,93.1,93.125,93.07,93.06,92.996,92.985,92.965,93.0,92.99,93.05,93.03,93.0,92.98,92.94,92.89,92.875,92.88,92.86,92.93,92.9,92.88,92.9,92.9,92.92,92.99,93.0,92.97,92.95,92.95,92.93,92.89,92.96,93.05,93.04,93.06,93.0,93.05,93.1,93.08,93.06,93.06,93.06,93.12,93.1,93.1,92.99,93.03,93.045,93.14,93.18,93.23,93.34,93.29,93.305,93.3,93.36,93.37,93.25,93.24,93.26,93.27,,93.35,93.39,93.4,93.44,93.5,93.48,93.459,93.39,93.38,93.33,93.41,93.38,93.46,93.44,93.46,93.32,93.32,93.28,93.29,93.3,93.32,93.28,93.27,93.23,93.13,93.09,93.059,93.02,93.04,93.02,93.03,92.97,93.02,93.0,93.025,93.0,93.0,93.03,93.02,93.0,92.91,92.9,92.92,92.885,92.9,92.86,92.93,92.99,93.05,93.05,93.05,93.16,93.14,93.06,93.05,93.04,93.04,93.07,93.07,93.11,93.13,93.1,93.13,93.12,93.105,93.135,93.21,93.26,93.25,93.295,93.4,93.36,93.36,93.36,93.36,93.12,93.17,93.13,93.05,92.96,92.945,92.9,92.89,92.82,92.805,92.888,92.798,92.79,92.8,92.787,92.77,92.76,92.77,92.79,92.84,92.74,92.83,92.82,92.785,92.79,92.78,92.77,92.88,92.86,92.81,92.705,92.71,92.7,92.78,92.82,92.92,92.92,92.96,92.9,92.8,92.83,92.98,92.95,93.0,92.945,92.98,92.99,92.965,92.95,92.96,93.1,93.13,93.055,93.08,93.21,93.2,93.17,93.04
2019-05-20,93.21,93.143,93.1,93.29,93.23,93.2,93.08,93.15,93.15,92.99,93.1,93.103,93.16,93.34,93.47,93.58,93.74,93.73,93.638,93.56,93.435,93.42,93.35,93.319,93.23,93.19,93.445,93.55,93.73,93.67,93.6,93.73,93.88,93.77,93.76,93.788,93.7,93.71,93.73,93.85,93.95,94.01,93.97,94.13,94.08,94.09,94.14,94.25,94.23,94.16,94.03,94.03,94.07,94.176,94.22,94.295,94.39,94.275,94.24,94.3,94.28,94.21,94.14,94.165,94.22,94.25,94.35,94.34,94.31,94.37,94.34,94.37,94.44,94.385,94.44,94.35,94.33,94.23,94.225,94.3,94.16,94.235,94.36,94.36,94.36,94.43,94.5,94.44,94.44,94.5,94.45,94.435,94.24,94.23,94.16,94.07,94.1,94.06,94.07,93.99,93.99,94.01,94.06,94.14,94.055,94.095,94.01,93.97,93.97,93.86,93.66,93.72,93.7,93.64,93.72,93.715,93.644,93.7,93.69,93.72,93.74,93.95,93.829,93.85,93.9,93.83,93.78,93.82,93.84,93.765,93.8,93.945,93.91,93.81,93.8,93.8,93.92,93.95,93.87,93.87,93.93,93.97,93.94,93.93,93.96,93.985,93.95,93.96,93.97,94.03,94.08,94.07,94.12,94.1,94.08,94.125,94.09,94.07,94.08,94.0,94.0,94.111,94.07,94.05,94.09,94.09,94.08,94.05,94.05,94.03,94.01,94.03,94.02,94.06,94.06,94.06,94.06,93.99,94.0,94.02,93.987,93.97,93.89,93.92,93.94,93.97,94.04,94.1,94.04,94.07,93.93,93.94,93.92,93.98,93.98,94.02,94.04,94.02,93.995,94.01,93.965,93.94,93.97,94.0,93.93,93.92,93.98,93.85,93.88,93.85,93.81,93.83,93.75,93.72,93.71,93.72,93.77,93.8,93.79,93.77,93.72,93.74,93.74,93.71,93.69,93.639,93.68,93.72,93.72,93.735,93.73,93.72,93.71,93.762,93.7,93.68,93.67,93.63,93.6,93.54,93.59,93.57,93.55,93.55,93.609,93.58,93.54,93.6,93.57,93.51,93.59,93.63,93.6,93.62,93.54,93.54,93.53,93.47,93.54,93.54,93.53,93.465,93.46,93.427,93.36,93.409,93.43,93.35,93.35,93.42,93.43,93.442,93.38,93.342,93.39,93.41,93.42,93.41,93.4,93.37,93.38,93.44,93.43,93.51,93.55,93.47,93.5,93.54,93.537,93.49,93.43,93.49,93.52,93.52,93.52,93.5,93.57,93.6,93.56,93.56,93.59,93.57,93.59,93.53,93.56,93.58,93.56,93.6,,93.56,93.57,93.61,93.615,93.55,,93.56,93.58,93.615,93.6,93.56,93.64,93.6,,93.581,93.57,93.58,93.565,93.585,93.61,93.53,93.5,93.51,93.46,93.43,93.344,93.37,93.37,93.39,93.38,93.37,93.38,93.36,93.33,93.33,93.3,93.4,93.38,93.43,93.51,93.51,93.49,93.55,93.565,93.51,93.465,93.425,93.43,93.42,93.44,93.435,93.49,93.495,93.55,93.61,93.61,93.65,93.68,93.72,93.74,93.7,93.72,93.67,93.68,93.66,93.61,93.59,93.62,93.6,93.57,93.57,93.51,93.56,93.53,93.59,93.64,93.655,93.74,93.78,93.61,93.56
2019-05-21,94.09,94.23,94.31,94.31,94.27,94.24,94.13,94.33,94.37,94.51,94.55,94.48,94.77,94.84,94.815,94.62,94.68,94.84,94.82,94.891,94.92,94.96,95.03,95.06,95.055,95.02,95.03,95.175,95.06,95.04,94.99,95.02,95.2,95.24,95.27,95.08,95.16,95.13,95.21,95.135,95.03,95.04,95.09,95.17,95.065,95.01,95.18,95.195,95.13,95.04,95.05,95.025,94.94,94.92,94.87,94.88,94.94,95.022,94.94,94.77,94.88,94.91,94.82,94.925,95.0,95.005,94.92,94.82,94.79,94.72,94.8,94.73,94.72,94.92,94.86,94.9,94.9,94.99,95.02,94.99,94.91,94.89,94.92,94.95,94.985,94.98,94.95,94.995,95.04,95.03,95.1,95.17,95.095,95.07,95.075,94.985,95.2,95.12,95.03,94.945,94.98,94.93,94.9,94.92,94.911,95.05,95.06,95.0,94.965,95.01,95.08,94.98,95.025,95.17,95.16,95.11,95.2,95.15,95.02,94.96,95.09,95.04,95.02,95.0,95.07,95.02,94.94,94.955,94.89,94.86,94.81,94.86,94.86,94.91,94.9,94.82,94.84,94.87,94.89,94.86,94.81,94.775,94.68,94.64,94.62,94.58,94.59,94.58,94.66,94.69,94.78,94.81,94.84,94.76,94.77,94.82,94.8,94.83,94.83,94.85,94.85,94.91,94.88,94.88,94.95,95.029,94.95,94.96,94.9,94.93,95.01,94.95,94.99,95.015,94.98,94.95,94.955,94.97,94.99,94.98,95.01,94.981,95.03,95.027,95.02,95.03,95.04,95.08,95.034,95.03,94.97,94.98,94.98,95.0,95.0,95.04,95.03,95.01,95.03,95.06,95.07,95.05,95.11,95.04,95.01,95.03,95.0,95.01,95.05,95.04,95.03,95.03,95.015,95.06,95.03,95.04,95.0,94.905,94.955,94.89,94.87,94.94,94.94,94.95,94.95,94.945,94.91,94.9,94.9,94.915,94.925,94.915,94.85,94.88,94.85,94.865,94.85,94.88,94.898,94.845,94.9,94.95,94.92,94.93,94.93,94.95,94.92,94.96,94.935,94.96,95.0,94.973,94.96,94.93,94.93,94.93,94.96,95.03,95.04,95.03,95.02,95.04,95.081,95.061,95.02,95.0,95.02,95.04,95.03,94.98,94.98,95.025,95.04,95.07,95.09,95.115,95.14,95.15,95.12,95.2,95.17,95.17,95.16,95.13,95.12,95.18,95.19,95.2,95.18,95.16,95.2,95.171,95.18,95.22,95.2,95.2,95.21,95.19,95.21,95.19,95.15,95.144,95.16,95.14,95.19,95.17,95.24,95.26,95.28,95.28,95.31,95.33,95.46,95.46,95.445,95.475,95.445,95.445,95.505,95.53,95.52,95.58,95.5,95.48,95.53,95.54,95.47,95.45,95.45,95.47,95.48,95.48,95.43,95.43,95.45,95.41,95.45,95.43,95.46,95.52,,95.47,95.46,95.46,95.41,95.42,95.43,95.39,95.36,95.45,95.41,95.425,95.4,95.38,95.36,95.37,95.41,95.436,95.545,95.535,95.58,95.62,95.68,95.675,95.63,95.68,95.72,95.75,95.79,95.85,95.9,95.93,95.89,95.85,95.86,95.88,95.87,95.869,95.93,95.9,95.88,95.86,95.885,95.88,95.88,95.83,95.82,95.785,95.77,95.78
2019-05-22,95.02,95.0,95.13,95.38,95.05,94.92,95.0,95.06,94.97,95.03,95.05,94.96,94.99,94.92,95.0,95.03,94.93,94.86,94.95,94.92,94.915,94.95,94.86,94.9,94.98,94.9,94.98,95.05,95.0,95.21,95.26,95.28,95.255,95.24,95.165,95.23,95.22,95.09,94.98,,94.965,94.95,94.83,94.86,94.77,94.67,94.85,94.87,94.72,94.695,94.67,94.6,94.63,94.65,94.73,94.8,94.7,94.645,94.81,94.74,94.66,94.49,94.43,94.51,94.54,94.51,94.409,94.305,94.27,94.185,94.19,94.17,94.15,94.05,93.98,93.955,93.98,93.98,94.0,93.87,93.825,93.86,93.865,93.856,93.85,93.81,93.78,93.68,93.614,93.62,93.72,93.51,93.51,93.515,93.45,93.43,93.432,93.51,93.48,93.54,93.56,93.54,93.58,93.54,93.522,93.52,93.58,93.62,93.7,93.64,93.61,93.47,93.34,93.4,93.37,93.34,93.32,93.249,93.317,93.34,93.41,93.39,93.41,93.34,93.3,93.21,93.21,93.205,93.12,93.08,93.15,93.15,93.165,93.197,93.25,93.22,93.19,93.19,93.27,93.3,93.355,93.31,93.19,93.12,93.195,93.1,93.08,93.035,93.07,93.03,92.94,92.99,92.9,92.84,92.925,92.855,92.8,92.82,92.845,92.81,92.79,92.8,92.78,92.83,92.78,92.81,92.81,92.8,92.78,92.82,92.82,92.855,92.85,92.93,92.87,92.87,92.89,92.89,92.92,93.02,93.02,92.99,92.889,92.87,92.911,92.89,92.87,92.82,92.92,92.99,93.02,92.85,92.77,92.86,92.85,92.85,92.87,92.73,92.73,92.74,92.72,92.623,92.7,92.68,92.73,92.81,92.85,92.93,92.85,92.87,92.82,92.89,92.815,92.84,92.85,92.69,92.63,92.61,92.64,92.61,92.54,92.58,92.6,92.59,92.58,92.58,92.556,92.575,92.53,92.58,92.6,92.61,92.545,92.555,92.55,92.575,92.64,92.55,92.59,92.67,92.72,92.62,92.63,92.63,92.67,92.61,92.64,92.63,92.65,92.64,92.68,92.82,92.81,92.773,92.82,92.79,92.74,92.71,92.75,92.82,92.84,92.75,92.75,92.73,92.77,92.84,92.931,92.9,92.82,92.85,92.818,92.801,92.76,92.73,92.74,92.65,92.61,92.63,92.66,92.64,92.58,92.59,92.58,92.59,92.57,92.56,92.54,92.545,92.51,92.52,92.55,92.514,92.55,92.55,92.55,92.56,92.62,92.61,92.57,92.58,92.53,92.49,92.51,92.63,92.55,92.62,92.63,92.675,92.66,92.69,92.7,92.67,92.65,92.61,92.6,92.61,92.6,92.595,92.699,92.68,92.69,92.72,92.67,92.66,92.55,92.53,92.52,92.58,92.56,92.43,92.43,92.51,92.52,92.51,92.54,92.61,92.72,92.78,92.765,92.81,92.73,92.75,92.75,92.75,92.69,92.76,92.71,92.68,92.63,92.67,92.72,92.715,92.71,92.73,92.856,92.935,92.94,92.94,92.96,92.96,92.84,92.83,92.81,92.78,92.75,92.76,92.74,92.69,92.74,92.74,92.74,92.714,92.75,92.81,92.81,92.82,92.8,92.79,92.73,92.72,92.78,92.83,92.88,92.96,92.92,92.93,92.95,92.98,93.02,92.97
2019-05-23,91.05,90.5,90.16,90.11,89.82,89.242,89.42,89.23,89.2,89.13,88.88,88.68,88.44,88.4,88.215,88.08,88.055,88.577,88.207,88.777,88.5,88.295,88.395,88.62,88.67,88.44,88.26,88.23,88.565,88.567,88.339,88.365,88.36,88.665,88.67,88.545,88.44,88.56,88.515,88.305,88.235,88.252,88.24,88.09,88.06,88.16,88.145,88.07,88.02,88.043,87.68,87.625,87.6,87.59,87.64,87.55,87.3,87.435,87.32,87.485,87.53,87.44,87.51,87.57,87.77,88.1,87.97,88.03,87.97,87.83,88.0,87.77,87.89,87.87,87.81,87.75,87.89,87.91,87.83,87.92,88.11,87.935,88.01,88.13,88.2,88.2,88.26,88.22,88.25,88.185,88.16,88.13,88.05,88.07,88.25,88.36,88.29,88.31,88.39,88.39,88.38,88.4,88.46,88.51,88.655,88.67,88.57,88.63,88.59,88.6,88.44,88.56,88.54,88.5,88.28,88.28,88.457,88.31,88.27,88.185,88.14,88.05,88.13,88.15,88.12,88.14,88.01,88.04,88.15,88.155,88.15,88.09,88.07,88.08,88.14,88.18,88.12,88.03,88.095,88.09,88.16,88.11,88.09,88.13,88.131,88.0,88.02,88.01,88.09,88.0,88.1,88.04,88.092,88.1,88.202,88.26,88.26,88.26,88.23,88.23,88.17,88.33,88.31,88.295,88.36,88.33,88.29,88.22,88.205,88.185,88.19,88.18,88.08,88.03,88.03,88.09,88.07,88.12,88.1,88.13,88.13,88.16,88.09,88.07,88.08,88.19,88.18,88.11,88.09,88.13,88.09,88.11,88.13,88.155,88.11,88.07,88.075,88.16,88.21,88.19,88.33,88.31,88.34,88.24,88.34,88.335,88.33,88.16,88.16,88.08,88.11,88.07,88.055,88.095,88.005,88.1,88.1,88.15,88.13,88.06,88.05,88.06,88.02,88.02,87.92,87.95,87.89,87.875,87.92,87.795,87.84,87.83,87.82,87.75,87.86,87.88,87.9,87.93,88.0,88.07,88.03,88.03,87.98,88.04,88.03,88.12,88.06,88.21,88.21,88.24,88.265,88.2,88.17,88.24,88.125,88.08,88.06,88.04,88.025,88.085,88.03,88.05,88.035,88.0,87.92,87.89,87.845,87.865,87.945,87.97,88.05,88.05,88.065,87.95,87.93,87.91,87.92,87.965,87.96,87.92,88.005,87.9,87.95,87.91,87.92,87.915,87.93,87.94,87.9,87.964,88.0,88.06,88.12,88.14,88.19,88.18,88.16,88.18,88.17,88.17,88.11,88.11,88.055,88.06,88.105,88.15,88.16,88.125,88.155,88.15,88.07,88.103,88.08,88.0,87.92,87.94,87.95,87.965,87.93,87.85,87.81,87.91,87.941,87.95,88.01,88.07,88.04,88.0,88.04,88.065,88.04,88.09,88.07,87.97,87.94,87.91,87.97,87.95,87.955,87.97,87.91,87.94,87.94,87.93,87.93,87.99,87.98,88.1,88.28,88.305,88.27,88.38,88.43,88.51,88.485,88.43,88.49,88.54,88.538,88.581,88.59,88.64,88.72,88.86,88.9,88.88,89.01,88.98,88.95,88.91,88.85,88.71,88.75,88.61,88.65,88.72,88.76,88.63,88.62,88.76,88.66,88.73,88.65,88.69,88.86,88.81,88.79,88.73,88.7,88.71
2019-05-24,89.78,90.357,90.11,89.96,89.92,89.86,89.592,89.51,89.37,89.52,89.45,89.43,89.339,89.22,89.14,89.27,89.04,89.2,89.13,88.954,88.935,88.84,88.93,88.94,88.86,88.88,89.12,89.11,89.101,89.0,89.165,89.15,89.26,89.23,89.26,89.315,89.25,89.13,89.05,88.995,88.88,88.98,89.04,88.99,88.96,88.97,89.075,89.18,89.1,89.06,89.135,89.08,89.11,89.13,89.14,89.095,89.0,89.14,89.075,89.025,88.92,88.98,88.92,88.8,88.72,88.7,88.57,88.57,88.58,88.46,88.48,88.42,88.4,88.4,88.36,88.365,88.51,88.33,88.26,88.235,88.16,88.105,88.01,88.047,87.93,87.91,87.996,87.93,88.01,88.08,87.96,87.96,87.88,87.925,87.946,87.86,87.745,87.745,87.85,87.665,87.66,87.47,87.374,87.465,87.45,87.3,87.38,87.25,87.26,87.39,87.43,87.335,87.375,87.41,87.44,87.515,87.52,87.5,87.43,87.39,87.36,87.48,87.45,87.42,87.49,87.38,87.475,87.47,87.365,87.385,87.32,87.27,87.44,87.305,87.31,87.325,87.36,87.3,87.315,87.25,87.32,87.27,87.31,87.36,87.35,87.33,87.32,87.26,87.25,87.21,87.215,87.18,87.18,87.15,87.14,87.185,87.22,87.18,87.16,87.16,87.14,87.12,87.12,87.103,87.07,87.07,86.98,86.97,86.965,86.92,86.995,87.0,87.0,86.995,86.97,86.98,87.0,87.005,86.98,87.01,87.015,87.015,87.02,87.215,87.25,87.25,,87.335,87.385,87.38,87.345,87.325,87.22,87.25,87.257,87.24,87.25,87.25,87.24,87.27,87.199,87.182,87.16,87.172,87.21,87.23,87.17,87.15,87.155,87.18,87.265,87.305,87.295,87.25,87.285,87.245,87.22,87.14,87.16,87.165,87.175,87.19,87.12,87.17,87.14,87.14,87.18,87.1,87.18,87.215,87.15,87.08,87.11,87.08,87.1,87.105,87.065,87.105,87.07,87.07,87.01,87.08,87.075,87.02,87.06,87.01,86.96,86.96,87.01,87.08,87.01,87.005,87.0,87.0,87.01,87.0,86.99,86.99,86.99,86.95,87.005,87.0,87.0,87.013,86.98,86.99,86.89,86.9,86.894,86.94,87.0,86.99,86.96,86.99,87.01,86.97,86.963,86.94,86.93,86.95,86.96,86.94,86.87,86.805,86.8,86.79,86.79,86.71,86.75,86.79,86.78,86.752,86.758,86.74,86.74,86.755,86.89,86.97,86.95,86.91,86.9,86.87,86.88,86.9,86.91,86.8,86.76,86.75,86.77,86.75,86.735,86.78,86.74,86.746,86.76,86.75,86.75,86.94,86.935,86.88,86.86,86.86,86.91,86.86,86.92,86.875,86.907,86.86,86.91,86.905,86.92,86.92,86.92,86.96,86.91,86.945,86.85,86.87,86.83,86.875,86.9,86.92,87.0,86.98,87.0,87.04,87.095,87.09,87.075,86.98,86.97,86.94,87.01,86.935,86.88,86.88,86.9,86.86,86.85,86.88,86.98,86.94,86.99,86.95,86.93,86.96,86.885,86.943,86.9,86.91,86.9,86.965,87.0,87.025,87.07,87.09,87.105,87.11,87.24,87.3,87.23,87.23,87.23,87.14,87.168,87.25,87.215,87.15,87.22,87.2
2019-05-28,87.69,87.63,87.86,88.05,87.74,87.83,87.81,87.982,87.785,87.78,87.7,87.72,87.84,87.82,87.9,87.7,87.91,87.91,87.92,88.03,88.0,87.91,87.95,87.94,88.16,88.195,88.28,88.12,88.113,88.095,88.085,88.19,88.23,88.15,88.01,87.941,88.06,88.12,88.12,88.16,87.94,87.82,87.83,87.84,87.89,87.83,87.95,87.86,87.8,87.695,87.745,87.77,87.89,87.83,87.785,87.75,87.72,87.66,87.62,87.62,87.67,87.695,87.64,87.615,87.608,87.46,87.315,87.29,87.22,87.255,87.095,87.123,87.245,87.23,87.34,87.2,87.22,87.28,87.41,87.35,87.405,87.27,87.12,86.99,87.11,87.08,87.14,87.05,87.11,87.18,87.175,87.35,87.48,87.52,87.43,87.45,87.58,87.65,87.7,87.75,87.73,87.67,87.64,87.59,87.765,87.68,87.7,87.72,87.69,87.79,87.73,87.69,87.706,87.68,87.71,87.67,87.635,87.55,87.5,87.485,87.39,87.3,87.31,87.3,87.225,87.34,87.471,87.45,87.49,87.445,87.54,87.58,87.54,87.63,87.62,87.63,87.59,87.58,87.57,87.47,87.39,87.46,87.42,87.38,87.4,87.31,87.22,87.25,87.38,87.39,87.36,87.41,87.38,87.5,87.45,87.39,87.41,87.4,87.44,87.41,87.33,87.315,87.43,87.48,87.52,87.56,,87.532,87.55,87.63,87.63,87.625,87.65,87.58,87.59,87.59,87.67,87.69,87.66,87.63,87.6,87.63,87.57,87.45,87.45,87.5,87.51,87.47,87.48,87.47,87.42,87.4,87.369,87.41,87.4,87.345,87.39,87.38,87.4,87.41,87.335,87.36,87.42,87.46,87.37,87.323,87.354,87.34,87.33,87.34,87.28,87.34,87.43,87.5,87.51,87.45,87.47,87.57,87.56,87.59,87.52,87.52,87.64,87.63,87.59,87.59,87.59,87.599,87.66,87.58,87.56,87.57,87.59,87.57,87.57,87.57,87.53,87.58,87.52,87.615,87.55,87.58,87.58,87.6,87.605,87.65,87.67,87.77,87.75,87.69,87.7,87.775,87.75,87.705,87.68,87.68,87.65,87.66,87.62,87.69,87.72,87.75,87.72,87.69,87.66,87.62,87.675,87.585,87.57,87.69,87.65,87.57,87.545,87.51,87.48,87.46,87.461,87.49,87.47,87.46,87.44,87.43,87.41,87.36,87.33,87.4,87.41,87.42,87.52,87.54,87.47,87.47,87.5,87.46,87.45,87.42,87.42,87.41,87.48,87.45,87.4,87.4,87.41,87.425,87.4,87.346,87.27,87.25,87.28,87.26,87.21,87.132,87.112,87.06,87.075,87.11,87.11,87.15,87.23,87.21,87.25,87.31,87.35,87.36,87.36,87.39,87.39,87.42,87.455,87.47,87.47,87.44,87.37,87.37,87.385,87.385,87.51,87.58,87.52,87.48,87.445,87.445,87.38,87.38,87.44,87.49,87.523,87.57,87.54,87.53,87.5,87.46,87.49,87.43,87.5,87.48,87.505,87.53,87.45,87.44,87.4,87.34,87.27,87.31,87.3,87.32,87.29,87.24,87.29,87.32,87.3,87.28,87.36,87.34,87.28,87.235,87.27,87.29,87.275,87.33,87.27,87.33,87.295,87.255,87.26,87.31,87.3,87.24,87.24,87.24
2019-05-29,85.65,86.02,86.165,86.02,86.01,85.77,85.72,85.98,85.73,85.66,85.58,85.6,85.68,85.77,85.765,85.65,85.56,85.58,85.42,85.219,85.35,85.34,85.3,85.29,85.18,85.45,85.47,85.47,85.445,85.34,85.35,85.2,85.29,85.22,85.26,85.355,85.33,85.345,85.22,85.19,85.315,85.3,85.37,85.44,85.535,85.645,85.77,85.72,85.84,85.77,85.785,85.64,85.79,85.73,85.71,85.73,85.72,85.86,85.85,85.86,85.88,85.85,85.79,85.81,85.74,85.685,85.775,85.83,85.8,85.8,85.85,85.74,85.74,85.78,85.86,85.81,85.76,85.8,85.83,85.7,85.8,85.73,85.75,85.71,85.67,85.68,85.7,85.75,85.75,85.71,85.7,85.65,85.7,85.695,85.7,85.6,85.55,85.56,85.62,85.62,85.59,85.46,85.37,85.36,85.34,85.26,85.13,85.096,85.13,85.16,85.02,85.01,84.92,84.82,84.84,84.845,84.92,84.92,84.88,84.8,84.93,84.894,85.09,84.91,84.9,84.96,85.0,84.84,84.92,84.91,84.75,84.61,84.64,84.46,84.457,84.41,84.43,84.52,84.519,84.5,84.523,84.53,84.41,84.34,84.29,84.34,84.43,84.375,84.37,84.31,84.37,84.44,84.47,84.4,84.41,84.44,84.47,84.55,84.57,84.64,84.6,84.65,84.658,84.77,84.82,84.78,84.88,84.87,84.89,84.93,84.855,84.79,84.73,84.72,84.64,84.69,84.7,84.72,84.68,84.71,84.68,84.79,84.8,84.81,84.79,84.81,84.775,84.73,84.835,84.86,84.95,84.86,84.93,84.91,84.97,84.965,85.01,85.08,84.96,84.96,84.89,84.92,84.87,84.87,84.85,84.91,84.91,84.94,84.93,84.94,84.96,85.01,85.13,85.17,85.16,85.14,85.215,85.27,85.325,85.51,85.55,85.6,85.76,85.58,85.533,85.46,85.41,85.415,85.453,85.38,85.5,85.46,85.47,85.47,85.47,85.54,85.54,85.51,85.63,85.72,85.65,85.76,85.86,85.87,85.87,85.8,85.91,85.89,85.89,85.9,85.91,85.92,85.85,85.775,85.755,85.81,85.77,85.72,85.78,85.82,85.835,85.91,85.74,85.7,85.68,85.66,85.66,85.69,85.66,85.64,85.63,85.65,85.65,85.67,85.68,85.68,85.646,85.77,85.71,85.75,85.67,85.64,85.68,85.67,85.565,85.53,85.59,85.59,85.57,85.65,85.61,85.69,85.71,85.73,85.73,85.702,85.74,85.8,85.87,85.83,85.88,85.815,85.8,85.745,85.78,85.81,85.79,85.86,85.87,85.853,85.9,85.78,85.82,85.84,85.74,85.75,85.69,85.72,85.74,85.79,85.76,85.73,85.74,85.73,85.76,85.74,85.8,85.87,85.93,85.94,85.98,85.92,85.9,85.85,85.89,85.88,85.83,85.84,85.83,85.86,85.87,85.87,85.89,85.9,85.95,85.99,85.965,85.975,86.01,86.062,86.07,86.105,86.22,86.17,86.155,86.18,86.2,86.245,86.15,86.12,86.205,86.16,86.14,86.09,86.19,86.34,86.34,86.38,86.36,86.3,86.31,86.37,86.39,86.39,86.42,86.42,86.37,86.36,86.4,86.47,86.51,86.44,86.43,86.47,86.47,86.525,86.54,86.55,86.56,86.6
2019-05-30,86.26,86.26,86.26,86.36,86.19,86.0,85.954,86.1,85.97,85.66,85.77,85.86,85.945,86.03,85.95,85.95,85.975,86.0,86.025,85.94,85.96,85.92,85.94,86.02,85.94,85.98,86.035,86.16,86.05,86.015,85.9,85.76,85.88,85.878,85.83,85.86,85.7,85.6,85.57,85.63,85.655,85.66,85.78,85.72,85.68,85.714,85.76,85.58,85.55,85.4,85.345,85.43,85.4,85.33,85.37,85.29,85.405,85.34,85.31,85.34,85.33,85.286,85.215,85.24,85.18,85.13,85.0,84.99,85.09,85.075,85.04,84.96,84.94,84.91,84.95,85.02,84.99,84.96,85.003,84.91,84.86,84.8,84.79,84.8,84.86,84.86,85.06,85.18,85.255,85.32,85.17,84.84,84.425,84.25,84.33,84.57,84.42,84.354,84.29,84.355,84.42,84.37,84.569,84.67,84.73,84.72,84.563,84.62,84.43,84.41,84.27,84.24,84.18,83.962,83.975,83.87,83.9,83.98,83.895,83.89,83.83,84.005,84.005,84.01,84.01,84.18,84.2,84.24,84.355,84.315,84.34,84.33,84.295,84.26,84.232,84.22,84.14,84.2,84.18,84.11,84.02,83.985,83.9,83.82,83.863,83.93,83.95,83.99,83.97,84.01,84.115,84.12,84.06,84.03,84.042,84.07,84.0,84.17,84.1,84.04,84.04,83.985,84.063,84.03,84.03,84.165,84.1,84.25,84.32,84.35,84.33,84.325,84.29,84.34,84.294,84.27,84.18,84.225,84.25,84.205,84.18,84.165,84.13,84.135,84.15,84.24,84.25,84.24,84.335,84.34,84.3,84.37,84.29,84.26,84.34,84.37,84.33,84.42,84.45,84.445,84.45,84.46,84.47,84.475,84.48,84.44,84.475,84.45,84.42,84.45,84.45,84.395,84.43,84.43,84.43,84.42,84.37,84.34,84.27,84.235,84.19,84.245,84.22,84.2,84.23,84.245,84.2,84.255,84.265,84.23,84.27,84.365,84.37,84.33,84.354,84.38,84.35,84.37,84.393,84.33,84.42,84.29,84.25,84.235,84.23,84.19,84.14,84.11,84.125,84.13,84.08,84.11,84.09,84.21,84.18,84.17,84.155,84.18,84.115,84.14,84.14,84.195,84.23,84.32,84.345,84.385,84.405,84.34,84.368,84.38,84.35,84.33,84.42,84.45,84.43,84.435,84.38,84.365,84.29,84.26,84.285,84.29,84.27,84.25,84.22,84.17,84.13,84.09,84.1,84.11,84.16,84.193,84.13,84.13,84.085,84.09,84.01,84.07,84.129,84.11,84.075,84.025,84.07,84.04,84.05,84.06,84.04,83.98,83.935,83.964,83.95,84.07,84.01,83.94,83.95,83.935,83.95,84.015,83.97,83.96,84.045,84.06,84.06,84.03,84.06,84.09,84.17,84.21,84.18,84.165,84.17,84.145,84.14,84.12,84.15,84.17,84.14,84.01,83.92,83.982,84.02,84.03,84.08,84.125,84.1,84.1,84.06,84.03,84.04,84.065,84.04,84.05,84.02,83.99,84.0,83.97,83.915,83.95,83.97,84.03,83.95,83.91,83.95,84.0,83.98,83.99,84.1,84.1,84.13,84.1,84.07,84.07,84.05,84.05,84.025,84.04,84.01,84.07,84.05,84.01,84.0,84.01,84.02,84.025,84.0,83.92,83.92,83.91,83.87,83.88
2019-05-31,82.7,82.23,82.31,82.695,82.835,82.865,82.82,82.835,82.795,82.82,82.88,82.87,83.03,83.01,83.04,83.02,83.33,83.3,83.32,83.35,83.26,83.09,83.05,83.09,83.12,82.98,83.06,83.045,82.95,83.1,83.195,83.17,83.12,83.12,83.08,83.105,83.01,83.03,83.09,83.01,83.03,82.96,83.01,82.94,82.89,82.845,83.01,83.0,83.17,83.2,83.24,83.245,83.38,83.44,83.605,83.56,83.535,83.455,83.57,83.537,83.515,83.59,83.546,83.56,83.62,83.55,83.625,83.705,83.79,83.72,83.77,83.58,83.595,83.54,83.435,83.42,83.5,83.455,83.36,83.32,83.37,83.59,83.52,83.6,83.6,83.585,83.49,83.45,83.48,83.45,83.42,83.38,83.41,83.41,83.22,83.16,83.07,83.08,83.13,83.21,83.18,83.21,83.19,83.21,83.17,83.1,83.16,83.07,83.11,83.1,83.1,83.115,83.19,83.3,83.38,83.43,83.39,83.36,83.345,83.44,83.43,83.34,83.44,83.34,83.325,83.36,83.375,83.43,83.32,83.35,83.32,83.28,83.32,83.33,83.28,83.24,83.13,83.13,83.12,83.11,83.165,83.16,83.21,83.16,83.07,83.07,83.13,83.23,83.23,83.28,83.31,83.315,83.25,83.228,83.13,83.07,83.1,83.1,83.08,83.12,83.09,83.09,83.11,83.07,83.09,83.09,83.13,83.16,83.14,83.21,83.24,83.21,83.21,83.1,83.145,83.1,83.082,83.02,83.07,83.11,83.11,83.05,83.05,83.04,83.13,83.083,83.05,83.07,82.98,82.94,82.925,82.9,82.91,82.93,82.98,82.91,82.93,82.94,82.93,82.92,82.95,82.99,82.95,82.94,82.89,82.955,82.9,82.83,82.89,82.895,82.86,82.87,82.94,82.96,82.89,82.9,82.91,82.85,82.82,82.81,82.86,82.92,82.89,82.87,82.845,82.83,82.87,82.83,82.83,82.84,82.79,82.75,82.68,82.66,82.68,82.72,82.71,82.675,82.65,82.715,82.69,82.7,82.735,82.75,82.67,82.67,82.71,82.68,82.69,82.61,82.62,82.59,82.59,82.56,82.54,82.535,82.545,82.55,82.58,82.62,82.59,82.55,82.51,82.5,82.52,82.53,82.621,82.59,82.57,82.555,82.55,82.45,82.38,82.4,82.36,82.35,82.38,82.37,82.35,82.36,82.38,82.37,82.29,82.26,82.27,82.25,82.19,82.275,82.23,82.26,82.23,82.23,82.205,82.26,82.25,82.2,82.14,82.12,82.11,82.16,82.13,82.1,82.06,82.06,82.05,82.1,82.12,82.11,82.125,82.12,82.1,82.125,82.25,82.275,82.3,82.28,82.36,82.31,82.345,82.3,82.33,82.38,82.42,82.47,82.46,82.415,82.43,82.51,82.43,82.47,82.4,82.37,82.3,82.28,82.28,82.2,82.14,82.11,82.04,82.02,82.03,81.99,82.02,82.01,82.01,82.03,82.02,82.004,81.97,81.99,81.98,82.04,82.05,81.97,81.99,81.98,81.97,81.94,81.87,81.87,81.93,81.943,81.98,81.97,81.94,81.97,81.95,81.91,81.91,81.9,81.91,81.94,81.9,81.92,81.94,81.93,81.93,81.95,82.02,82.08,82.02,81.99,81.91,81.94,81.925,81.91,81.92,81.92,81.97,81.93
